0.00	0.01608
0.05	0.01658
0.10	0.01709
0.15	0.01759
0.20	0.01809
0.25	0.01859
0.30	0.01909
0.35	0.01959
0.40	0.02009
0.45	0.02059
0.50	0.02109
0.55	0.02159
0.60	0.02210
0.65	0.02260
0.70	0.02310
0.75	0.02360
0.80	0.02860
0.85	0.03374
0.90	0.03887
0.95	0.04345
1.00	0.04803
1.05	0.05183
1.10	0.05546
1.15	0.05909
1.20	0.06245
1.25	0.06559
1.30	0.06873
1.35	0.07180
1.40	0.07478
1.45	0.07744
1.50	0.07935
1.55	0.08125
1.60	0.08323
1.65	0.08764
1.70	0.09206
1.75	0.09441
1.80	0.09644
1.85	0.09847
1.90	0.09992
1.95	0.10105
2.00	0.10219
2.05	0.10411
2.10	0.10708
2.15	0.10967
2.20	0.11146
2.25	0.11325
2.30	0.11529
2.35	0.11798
2.40	0.11994
2.45	0.11965
2.50	0.11937
2.55	0.11948
2.60	0.12099
2.65	0.12250
2.70	0.12405
2.75	0.12573
2.80	0.12729
2.85	0.12836
2.90	0.12943
2.95	0.13034
3.00	0.13049
3.05	0.13085
3.10	0.13221
3.15	0.13356
3.20	0.13491
3.25	0.13617
3.30	0.13744
3.35	0.13868
3.40	0.13971
3.45	0.14073
3.50	0.14082
3.55	0.14090
3.60	0.14098
3.65	0.14147
3.70	0.14207
3.75	0.14267
3.80	0.14367
3.85	0.14485
3.90	0.14552
3.95	0.14585
4.00	0.14619
4.05	0.14620
4.10	0.14582
4.15	0.14543
4.20	0.14507
4.25	0.14477
4.30	0.14446
4.35	0.14415
4.40	0.14382
4.45	0.14363
4.50	0.14468
4.55	0.14574
4.60	0.14677
4.65	0.14737
4.70	0.14797
4.75	0.14856
4.80	0.14902
4.85	0.14947
4.90	0.14945
4.95	0.14944
5.00	0.14945
5.05	0.14994
5.10	0.15043
5.15	0.15096
5.20	0.15223
5.25	0.15349
5.30	0.15399
5.35	0.15449
5.40	0.15499
5.45	0.15553
5.50	0.15606
5.55	0.15660
5.60	0.15836
5.65	0.16022
5.70	0.16119
5.75	0.16205
5.80	0.16292
5.85	0.16354
5.90	0.16411
5.95	0.16468
6.00	0.16517
6.05	0.16563
6.10	0.16651
6.15	0.16762
6.20	0.16873
6.25	0.16990
6.30	0.17111
6.35	0.17232
6.40	0.17372
6.45	0.17526
6.50	0.17634
6.55	0.17706
6.60	0.17778
6.65	0.17887
6.70	0.18024
6.75	0.18161
6.80	0.18320
6.85	0.18490
6.90	0.18633
6.95	0.18763
7.00	0.18893
7.05	0.19029
7.10	0.19169
7.15	0.19309
7.20	0.19503
7.25	0.19730
7.30	0.19918
7.35	0.20078
7.40	0.20238
7.45	0.20375
7.50	0.20508
7.55	0.20640
7.60	0.20830
7.65	0.21026
7.70	0.21196
7.75	0.21361
7.80	0.21525
7.85	0.21742
7.90	0.21963
7.95	0.22183
8.00	0.22372
8.05	0.22561
8.10	0.22751
8.15	0.23012
8.20	0.23273
8.25	0.23438
8.30	0.23594
8.35	0.23750
8.40	0.23940
8.45	0.24136
8.50	0.24332
8.55	0.24624
8.60	0.24930
8.65	0.25168
8.70	0.25392
8.75	0.25615
8.80	0.25832
8.85	0.26048
8.90	0.26269
8.95	0.26547
9.00	0.26815
9.05	0.27041
9.10	0.27266
9.15	0.27486
9.20	0.27697
9.25	0.27908
9.30	0.28194
9.35	0.28537
9.40	0.28790
9.45	0.28980
9.50	0.29170
9.55	0.29378
9.60	0.29604
9.65	0.29829
9.70	0.30124
9.75	0.30455
9.80	0.30723
9.85	0.30957
9.90	0.31191
9.95	0.31448
10.00	0.31711
10.05	0.31975
10.10	0.32228
10.15	0.32479
10.20	0.32731
10.25	0.33159
10.30	0.33570
10.35	0.33834
10.40	0.34099
10.45	0.34366
10.50	0.34657
10.55	0.34949
10.60	0.35283
10.65	0.35714
10.70	0.36076
10.75	0.36359
10.80	0.36642
10.85	0.36934
10.90	0.37238
10.95	0.37543
11.00	0.37931
11.05	0.38353
11.10	0.38638
11.15	0.38895
11.20	0.39152
11.25	0.39408
11.30	0.39665
11.35	0.39983
11.40	0.40417
11.45	0.40757
11.50	0.40992
11.55	0.41227
11.60	0.41484
11.65	0.41754
11.70	0.42023
11.75	0.42281
11.80	0.42538
11.85	0.42780
11.90	0.43021
11.95	0.43259
12.00	0.43484
12.05	0.43709
12.10	0.43984
12.15	0.44302
12.20	0.44552
12.25	0.44744
12.30	0.44936
12.35	0.45145
12.40	0.45366
12.45	0.45586
12.50	0.45822
12.55	0.46061
12.60	0.46256
12.65	0.46437
12.70	0.46618
12.75	0.46779
12.80	0.46938
12.85	0.47121
12.90	0.47416
12.95	0.47659
13.00	0.47749
13.05	0.47840
13.10	0.47932
13.15	0.48028
13.20	0.48123
13.25	0.48086
13.30	0.48014
13.35	0.47933
13.40	0.47851
13.45	0.47749
13.50	0.47548
13.55	0.47346
13.60	0.47162
13.65	0.46990
13.70	0.46818
13.75	0.46534
13.80	0.46207
13.85	0.46035
13.90	0.45883
13.95	0.45736
14.00	0.45600
14.05	0.45464
14.10	0.45362
14.15	0.45306
14.20	0.45306
14.25	0.45344
14.30	0.45384
14.35	0.45487
14.40	0.45590
14.45	0.45691
14.50	0.45778
14.55	0.45761
14.60	0.45535
14.65	0.45309
14.70	0.44934
14.75	0.44485
14.80	0.44037
14.85	0.42960
14.90	0.41736
14.95	0.40510
15.00	0.39284
15.05	0.38089
15.10	0.36924
15.15	0.35760
15.20	0.34024
15.25	0.32012
15.30	0.30761
15.35	0.29539
15.40	0.28366
15.45	0.27273
15.50	0.26180
15.55	0.24807
15.60	0.23272
15.65	0.22360
15.70	0.21528
15.75	0.20763
15.80	0.20121
15.85	0.19480
15.90	0.18844
15.95	0.18214
16.00	0.17769
16.05	0.17404
16.10	0.17052
16.15	0.16762
16.20	0.16473
16.25	0.16179
16.30	0.15877
16.35	0.15574
16.40	0.15286
16.45	0.15005
16.50	0.14870
16.55	0.14743
16.60	0.14619
16.65	0.14511
16.70	0.14403
16.75	0.14316
16.80	0.14244
16.85	0.14208
16.90	0.14177
16.95	0.14148
17.00	0.14130
17.05	0.14112
17.10	0.14127
17.15	0.14159
17.20	0.14242
17.25	0.14326
17.30	0.14400
17.35	0.14460
17.40	0.14521
17.45	0.14766
17.50	0.14991
17.55	0.15119
17.60	0.15247
17.65	0.15451
17.70	0.15690
17.75	0.15860
17.80	0.15807
17.85	0.15910
17.90	0.16149
17.95	0.16388
18.00	0.16437
18.05	0.16457
18.10	0.16343
18.15	0.16013
18.20	0.15454
18.25	0.14783
18.30	0.14112
18.35	0.13426
18.40	0.12741
18.45	0.12014
18.50	0.11248
18.55	0.10832
18.60	0.10464
18.65	0.10117
18.70	0.09845
18.75	0.09574
18.80	0.09721
18.85	0.09995
18.90	0.09877
18.95	0.09759
19.00	0.09675
19.05	0.09623
19.10	0.09546
19.15	0.08913
19.20	0.08281
19.25	0.07596
19.30	0.06864
19.35	0.06481
19.40	0.06188
19.45	0.05930
19.50	0.05753
19.55	0.05576
19.60	0.05702
19.65	0.05942
19.70	0.05978
19.75	0.06015
19.80	0.06138
19.85	0.06434
19.90	0.06729
19.95	0.06794
20.00	0.06709
20.05	0.06573
20.10	0.06424
20.15	0.06266
20.20	0.06055
20.25	0.05845
20.30	0.05778
20.35	0.05906
20.40	0.06013
20.45	0.06108
20.50	0.06194
20.55	0.06142
20.60	0.06090
20.65	0.06085
20.70	0.06140
20.75	0.06082
20.80	0.05964
20.85	0.05847
20.90	0.05747
20.95	0.05647
21.00	0.05482
21.05	0.05259
21.10	0.05067
21.15	0.04878
21.20	0.04812
21.25	0.04885
21.30	0.04958
21.35	0.05074
21.40	0.05199
21.45	0.05338
21.50	0.05478
21.55	0.05466
21.60	0.05407
21.65	0.05319
21.70	0.05105
21.75	0.05002
21.80	0.05033
21.85	0.05062
21.90	0.05030
21.95	0.04997
22.00	0.05035
22.05	0.05152
22.10	0.05038
22.15	0.04884
22.20	0.04883
22.25	0.05029
22.30	0.05133
22.35	0.04992
22.40	0.04851
22.45	0.04985
22.50	0.05115
22.55	0.04952
22.60	0.04795
22.65	0.04867
22.70	0.04939
22.75	0.04943
22.80	0.04918
22.85	0.05183
22.90	0.05447
22.95	0.05631
23.00	0.05792
23.05	0.05971
23.10	0.06178
23.15	0.06255
23.20	0.06291
23.25	0.06403
23.30	0.06618
23.35	0.06833
23.40	0.06999
23.45	0.07104
23.50	0.07107
23.55	0.07109
23.60	0.07144
23.65	0.07182
23.70	0.07372
23.75	0.07722
23.80	0.08011
23.85	0.08295
23.90	0.08542
23.95	0.08766
24.00	0.08965
24.05	0.09077
24.10	0.09189
24.15	0.09220
24.20	0.09135
24.25	0.08772
24.30	0.08410
24.35	0.08148
24.40	0.07901
24.45	0.07555
24.50	0.07099
24.55	0.07153
24.60	0.07298
24.65	0.07316
24.70	0.07178
24.75	0.07116
24.80	0.07106
24.85	0.07075
24.90	0.06896
24.95	0.06716
25.00	0.06539
25.05	0.06363
25.10	0.06165
25.15	0.05787
25.20	0.05557
25.25	0.05469
25.30	0.05367
25.35	0.05196
25.40	0.05025
25.45	0.05027
25.50	0.05089
25.55	0.04958
25.60	0.04450
25.65	0.03942
25.70	0.03623
25.75	0.03217
25.80	0.02687
25.85	0.02186
25.90	0.02002
25.95	0.01818
26.00	0.01599
26.05	0.01372
26.10	0.00983
26.15	0.00445
26.20	0.00106
26.25	0.00000
26.30	0.00000
26.35	0.00000
26.40	0.00000
26.45	0.00000
26.50	0.00071
26.55	0.00368
26.60	0.00668
26.65	0.00000
26.70	0.00000
26.75	0.00000
26.80	0.00000
26.85	0.00000
26.90	0.00000
26.95	0.00000
27.00	0.00000
