// Co-polarized Raman gain spectrum for SLA fiber		
# df	RamanGain	
# [THz]	[1/m/W]	
# PumpFrequency	[THz]	206.753419
0	0.0
0.05	1.1900000E-06
0.1	2.3800000E-06
0.15	3.5700000E-06
0.2	4.7600000E-06
0.25	5.9500000E-06
0.3	7.1400000E-06
0.35	8.3300000E-06
0.4	9.5200000E-06
0.45	1.1603520E-05
0.5	1.3295360E-05
0.55	1.5215680E-05
0.6	1.7375360E-05
0.65	1.9796160E-05
0.7	2.2494400E-05
0.75	2.5467360E-05
0.8	2.8698720E-05
0.85	3.2195280E-05
0.9	3.5917600E-05
0.95	3.9803120E-05
1	4.3851840E-05
1.05	4.8016160E-05
1.1	5.2247120E-05
1.15	5.6484880E-05
1.2	6.0660080E-05
1.25	6.4730560E-05
1.3	6.8602480E-05
1.35	7.2294880E-05
1.4	7.5826800E-05
1.45	7.9179200E-05
1.5	8.2364320E-05
1.55	8.5394400E-05
1.6	8.8295280E-05
1.65	9.1105040E-05
1.7	9.3815520E-05
1.75	9.6410400E-05
1.8	9.8904640E-05
1.85	1.0132408E-04
1.9	1.0365240E-04
1.95	1.0588144E-04
2	1.0802344E-04
2.05	1.1036536E-04
2.1	1.1249920E-04
2.15	1.1455552E-04
2.2	1.1651664E-04
2.25	1.1836896E-04
2.3	1.2013968E-04
2.35	1.2186552E-04
2.4	1.2354784E-04
2.45	1.2518800E-04
2.5	1.2677784E-04
2.55	1.2832280E-04
2.6	1.2982152E-04
2.65	1.3124408E-04
2.7	1.3259592E-04
2.75	1.3389880E-04
2.8	1.3515408E-04
2.85	1.3636448E-04
2.9	1.3753272E-04
2.95	1.3865880E-04
3	1.3974272E-04
3.05	1.4076408E-04
3.1	1.4172696E-04
3.15	1.4263952E-04
3.2	1.4350448E-04
3.25	1.4433136E-04
3.3	1.4512696E-04
3.35	1.4589808E-04
3.4	1.4664608E-04
3.45	1.4737640E-04
3.5	1.4807680E-04
3.55	1.4871328E-04
3.6	1.4929264E-04
3.65	1.4982848E-04
3.7	1.5035888E-04
3.75	1.5088656E-04
3.8	1.5140880E-04
3.85	1.5188208E-04
3.9	1.5231456E-04
3.95	1.5272120E-04
4	1.5311016E-04
4.05	1.5348824E-04
4.1	1.5386496E-04
4.15	1.5424304E-04
4.2	1.5462520E-04
4.25	1.5504000E-04
4.3	1.5548744E-04
4.35	1.5590496E-04
4.4	1.5629120E-04
4.45	1.5665976E-04
4.5	1.5706504E-04
4.55	1.5750976E-04
4.6	1.5799256E-04
4.65	1.5847944E-04
4.7	1.5897040E-04
4.75	1.5949672E-04
4.8	1.6008424E-04
4.85	1.6072208E-04
4.9	1.6131640E-04
4.95	1.6187264E-04
5	1.6240032E-04
5.05	1.6296880E-04
5.1	1.6357536E-04
5.15	1.6422952E-04
5.2	1.6494624E-04
5.25	1.6572008E-04
5.3	1.6642864E-04
5.35	1.6706648E-04
5.4	1.6765400E-04
5.45	1.6831360E-04
5.5	1.6907792E-04
5.55	1.6994016E-04
5.6	1.7085136E-04
5.65	1.7177888E-04
5.7	1.7273360E-04
5.75	1.7372368E-04
5.8	1.7474912E-04
5.85	1.7579088E-04
5.9	1.7683264E-04
5.95	1.7787304E-04
6	1.7889304E-04
6.05	1.7990216E-04
6.1	1.8096024E-04
6.15	1.8211216E-04
6.2	1.8335112E-04
6.25	1.8462680E-04
6.3	1.8590792E-04
6.35	1.8719040E-04
6.4	1.8849872E-04
6.45	1.8977712E-04
6.5	1.9103920E-04
6.55	1.9232032E-04
6.6	1.9362864E-04
6.65	1.9496280E-04
6.7	1.9638400E-04
6.75	1.9787456E-04
6.8	1.9932976E-04
6.85	2.0074680E-04
6.9	2.0220080E-04
6.95	2.0371440E-04
7	2.0529880E-04
7.05	2.0692120E-04
7.1	2.0866760E-04
7.15	2.1051840E-04
7.2	2.1239660E-04
7.25	2.1430060E-04
7.3	2.1621280E-04
7.35	2.1812080E-04
7.4	2.2001800E-04
7.45	2.2190840E-04
7.5	2.2380020E-04
7.55	2.2571640E-04
7.6	2.2771840E-04
7.65	2.2984400E-04
7.7	2.3206360E-04
7.75	2.3433200E-04
7.8	2.3660060E-04
7.85	2.3896960E-04
7.9	2.4145440E-04
7.95	2.4407240E-04
8	2.4670940E-04
8.05	2.4927160E-04
8.1	2.5175100E-04
8.15	2.5424800E-04
8.2	2.5681020E-04
8.25	2.5942280E-04
8.3	2.6204200E-04
8.35	2.6465060E-04
8.4	2.6726040E-04
8.45	2.6987700E-04
8.5	2.7248000E-04
8.55	2.7509120E-04
8.6	2.7776360E-04
8.65	2.8048100E-04
8.7	2.8317920E-04
8.75	2.8579720E-04
8.8	2.8833900E-04
8.85	2.9086180E-04
8.9	2.9335740E-04
8.95	2.9583000E-04
9	2.9832280E-04
9.05	3.0084020E-04
9.1	3.0337120E-04
9.15	3.0590760E-04
9.2	3.0844800E-04
9.25	3.1096800E-04
9.3	3.1347460E-04
9.35	3.1604220E-04
9.4	3.1868200E-04
9.45	3.2140060E-04
9.5	3.2418600E-04
9.55	3.2703240E-04
9.6	3.2994000E-04
9.65	3.3279600E-04
9.7	3.3558280E-04
9.75	3.3837340E-04
9.8	3.4117640E-04
9.85	3.4402840E-04
9.9	3.4693600E-04
9.95	3.4987900E-04
10	3.5293760E-04
10.05	3.5614180E-04
10.1	3.5948200E-04
10.15	3.6284260E-04
10.2	3.6620180E-04
10.25	3.6959080E-04
10.3	3.7301120E-04
10.35	3.7647520E-04
10.4	3.7998400E-04
10.45	3.8353360E-04
10.5	3.8706140E-04
10.55	3.9056480E-04
10.6	3.9409400E-04
10.65	3.9766540E-04
10.7	4.0122180E-04
10.75	4.0473460E-04
10.8	4.0821080E-04
10.85	4.1167340E-04
10.9	4.1511960E-04
10.95	4.1854000E-04
11	4.2194820E-04
11.05	4.2537400E-04
11.1	4.2881200E-04
11.15	4.3219840E-04
11.2	4.3552100E-04
11.25	4.3877820E-04
11.3	4.4202580E-04
11.35	4.4526940E-04
11.4	4.4847220E-04
11.45	4.5162600E-04
11.5	4.5469700E-04
11.55	4.5770940E-04
11.6	4.6072720E-04
11.65	4.6376540E-04
11.7	4.6683760E-04
11.75	4.6993040E-04
11.8	4.7298480E-04
11.85	4.7600960E-04
11.9	4.7903680E-04
11.95	4.8204520E-04
12	4.8502220E-04
12.05	4.8797200E-04
12.1	4.9089480E-04
12.15	4.9378060E-04
12.2	4.9666520E-04
12.25	4.9955920E-04
12.3	5.0246560E-04
12.35	5.0537320E-04
12.4	5.0822660E-04
12.45	5.1100100E-04
12.5	5.1369100E-04
12.55	5.1628460E-04
12.6	5.1878840E-04
12.65	5.2122280E-04
12.7	5.2360000E-04
12.75	5.2583320E-04
12.8	5.2784600E-04
12.85	5.3022040E-04
12.9	5.3232040E-04
12.95	5.3426920E-04
13	5.3604120E-04
13.05	5.3761480E-04
13.1	5.3895840E-04
13.15	5.3998800E-04
13.2	5.4065440E-04
13.25	5.4091960E-04
13.3	5.4087340E-04
13.35	5.4062580E-04
13.4	5.4005200E-04
13.45	5.3909720E-04
13.5	5.3767740E-04
13.55	5.3586320E-04
13.6	5.3381900E-04
13.65	5.3162000E-04
13.7	5.2927120E-04
13.75	5.2683680E-04
13.8	5.2424880E-04
13.85	5.2166340E-04
13.9	5.1924660E-04
13.95	5.1713320E-04
14	5.1535840E-04
14.05	5.1406920E-04
14.1	5.1301920E-04
14.15	5.1211760E-04
14.2	5.1139680E-04
14.25	5.1133680E-04
14.3	5.1267380E-04
14.35	5.1566720E-04
14.4	5.1856120E-04
14.45	5.2120500E-04
14.5	5.2356320E-04
14.55	5.2504840E-04
14.6	5.2487440E-04
14.65	5.2315940E-04
14.7	5.1981640E-04
14.75	5.1441860E-04
14.8	5.0822660E-04
14.85	5.0026240E-04
14.9	4.9054660E-04
14.95	4.7907760E-04
15	4.6603260E-04
15.05	4.5173220E-04
15.1	4.3637100E-04
15.15	4.2002920E-04
15.2	4.0309860E-04
15.25	3.8584700E-04
15.3	3.6839680E-04
15.35	3.5115600E-04
15.4	3.3447020E-04
15.45	3.1846300E-04
15.5	3.0332080E-04
15.55	2.8915500E-04
15.6	2.7594120E-04
15.65	2.6379100E-04
15.7	2.5266360E-04
15.75	2.4250160E-04
15.8	2.3329040E-04
15.85	2.2502420E-04
15.9	2.1761360E-04
15.95	2.1092240E-04
16	2.0486760E-04
16.05	1.9941136E-04
16.1	1.9442152E-04
16.15	1.8980976E-04
16.2	1.8555840E-04
16.25	1.8154232E-04
16.3	1.7784584E-04
16.35	1.7442680E-04
16.4	1.7121176E-04
16.45	1.6819936E-04
16.5	1.6541408E-04
16.55	1.6282192E-04
16.6	1.6046776E-04
16.65	1.5834616E-04
16.7	1.5642720E-04
16.75	1.5477888E-04
16.8	1.5342704E-04
16.85	1.5237848E-04
16.9	1.5161008E-04
16.95	1.5111232E-04
17	1.5083624E-04
17.05	1.5082672E-04
17.1	1.5109056E-04
17.15	1.5159920E-04
17.2	1.5232408E-04
17.25	1.5327336E-04
17.3	1.5447560E-04
17.35	1.5596344E-04
17.4	1.5772192E-04
17.45	1.5985984E-04
17.5	1.6233504E-04
17.55	1.6502104E-04
17.6	1.6792328E-04
17.65	1.7102952E-04
17.7	1.7416568E-04
17.75	1.7729232E-04
17.8	1.8021360E-04
17.85	1.8272552E-04
17.9	1.8465672E-04
17.95	1.8587664E-04
18	1.8625336E-04
18.05	1.8573792E-04
18.1	1.8430040E-04
18.15	1.8192176E-04
18.2	1.7855032E-04
18.25	1.7434520E-04
18.3	1.6945192E-04
18.35	1.6401464E-04
18.4	1.5821152E-04
18.45	1.5227784E-04
18.5	1.4620272E-04
18.55	1.4014256E-04
18.6	1.3430952E-04
18.65	1.2879336E-04
18.7	1.2357096E-04
18.75	1.1874568E-04
18.8	1.1421688E-04
18.85	1.1001992E-04
18.9	1.0617928E-04
18.95	1.0268680E-04
19	9.9512560E-05
19.05	9.6640240E-05
19.1	9.4033120E-05
19.15	9.1628640E-05
19.2	8.9356080E-05
19.25	8.7298400E-05
19.3	8.5448800E-05
19.35	8.3771920E-05
19.4	8.2239200E-05
19.45	8.0818000E-05
19.5	7.9462080E-05
19.55	7.8200000E-05
19.6	7.7000480E-05
19.65	7.5851280E-05
19.7	7.4756480E-05
19.75	7.3792240E-05
19.8	7.2940880E-05
19.85	7.2194240E-05
19.9	7.1523760E-05
19.95	7.0873680E-05
20	7.0239920E-05
20.05	6.9649680E-05
20.1	6.9098880E-05
20.15	6.8568480E-05
20.2	6.8061200E-05
20.25	6.7590640E-05
20.3	6.7151360E-05
20.35	6.6703920E-05
20.4	6.6232000E-05
20.45	6.5728800E-05
20.5	6.5207920E-05
20.55	6.4696560E-05
20.6	6.4201520E-05
20.65	6.3750000E-05
20.7	6.3337920E-05
20.75	6.2935360E-05
20.8	6.2520560E-05
20.85	6.2131600E-05
20.9	6.1776640E-05
20.95	6.1431200E-05
21	6.1125200E-05
21.05	6.0811040E-05
21.1	6.0472400E-05
21.15	6.0112000E-05
21.2	5.9784240E-05
21.25	5.9475520E-05
21.3	5.9169520E-05
21.35	5.8847200E-05
21.4	5.8499040E-05
21.45	5.8144080E-05
21.5	5.7791840E-05
21.55	5.7451840E-05
21.6	5.7102320E-05
21.65	5.6735120E-05
21.7	5.6317600E-05
21.75	5.5862000E-05
21.8	5.5452640E-05
21.85	5.5127600E-05
21.9	5.4942640E-05
21.95	5.4843360E-05
22	5.4748160E-05
22.05	5.4571360E-05
22.1	5.4375520E-05
22.15	5.4206880E-05
22.2	5.4099440E-05
22.25	5.4015120E-05
22.3	5.3955280E-05
22.35	5.3914480E-05
22.4	5.3866880E-05
22.45	5.3842400E-05
22.5	5.3847840E-05
22.55	5.3870960E-05
22.6	5.3940320E-05
22.65	5.4076320E-05
22.7	5.4255840E-05
22.75	5.4485680E-05
22.8	5.4855600E-05
22.85	5.5508400E-05
22.9	5.6480800E-05
22.95	5.7674880E-05
23	5.9006320E-05
23.05	6.0386720E-05
23.1	6.1946640E-05
23.15	6.3891440E-05
23.2	6.6161280E-05
23.25	6.8684080E-05
23.3	7.1345600E-05
23.35	7.4064240E-05
23.4	7.6801920E-05
23.45	7.9603520E-05
23.5	8.2575120E-05
23.55	8.5569840E-05
23.6	8.8425840E-05
23.65	9.1049280E-05
23.7	9.3362640E-05
23.75	9.5401280E-05
23.8	9.7280800E-05
23.85	9.8953600E-05
23.9	1.0020344E-04
23.95	1.0099904E-04
24	1.0134312E-04
24.05	1.0129144E-04
24.1	1.0105344E-04
24.15	1.0071888E-04
24.2	1.0013680E-04
24.25	9.9365680E-05
24.3	9.8431360E-05
24.35	9.7412720E-05
24.4	9.6410400E-05
24.45	9.5500560E-05
24.5	9.4698160E-05
24.55	9.3785600E-05
24.6	9.2735680E-05
24.65	9.1639520E-05
24.7	9.0683440E-05
24.75	8.9825280E-05
24.8	8.8961680E-05
24.85	8.7952560E-05
24.9	8.6719040E-05
24.95	8.5285600E-05
25	8.3625040E-05
25.05	8.1570080E-05
25.1	7.9153360E-05
25.15	7.6471440E-05
25.2	7.3638560E-05
25.25	7.0699600E-05
25.3	6.7653200E-05
25.35	6.4458560E-05
25.4	6.1145600E-05
25.45	5.7797280E-05
25.5	5.5422720E-05
25.55	5.2972000E-05
25.6	5.0510400E-05
25.65	4.8044720E-05
25.7	4.5615760E-05
25.75	4.3223520E-05
25.8	4.0885680E-05
25.85	3.8619920E-05
25.9	3.6461600E-05
25.95	3.4447440E-05
26	3.2581520E-05
26.05	3.0831200E-05
26.1	2.9189680E-05
26.15	2.7663760E-05
26.2	2.6260240E-05
26.25	2.4987280E-05
26.3	2.3848960E-05
26.35	2.2864320E-05
26.4	2.2046960E-05
26.45	2.1403680E-05
26.5	2.0858320E-05
26.55	2.0402720E-05
26.6	2.0024640E-05
26.65	1.9703680E-05
26.7	1.9411280E-05
26.75	1.9125680E-05
26.8	1.8814240E-05
26.85	1.8544960E-05
26.9	1.8339600E-05
26.95	1.8190000E-05
27	1.8064880E-05
27.05	1.7954720E-05
27.1	1.7854080E-05
27.15	1.7777920E-05
27.2	1.7738480E-05
27.25	1.7733040E-05
27.3	1.7715360E-05
27.35	1.7667760E-05
27.4	1.7560320E-05
27.45	1.7409360E-05
27.5	1.7254320E-05
27.55	1.7097920E-05
27.6	1.6966000E-05
27.65	1.6843600E-05
27.7	1.6723920E-05
27.75	1.6605600E-05
27.8	1.6504960E-05
27.85	1.6424720E-05
27.9	1.6364880E-05
27.95	1.6286000E-05
28	1.6185360E-05
28.05	1.6068400E-05
28.1	1.5950080E-05
28.15	1.5826320E-05
28.2	1.5698480E-05
28.25	1.5565200E-05
28.3	1.5449600E-05
28.35	1.5362560E-05
28.4	1.5323120E-05
28.45	1.5308160E-05
28.5	1.5289120E-05
28.55	1.5259200E-05
28.6	1.5233360E-05
28.65	1.5217040E-05
28.7	1.5210240E-05
28.75	1.5219760E-05
28.8	1.5253760E-05
28.85	1.5309520E-05
28.9	1.5372080E-05
28.95	1.5437360E-05
29	1.5504000E-05
29.05	1.5574720E-05
29.1	1.5657680E-05
29.15	1.5755600E-05
29.2	1.5868480E-05
29.25	1.5969120E-05
29.3	1.6062960E-05
29.35	1.6173120E-05
29.4	1.6305040E-05
29.45	1.6466880E-05
29.5	1.6660000E-05
29.55	1.6883040E-05
29.6	1.7138720E-05
29.65	1.7424320E-05
29.7	1.7741200E-05
29.75	1.8081200E-05
29.8	1.8414400E-05
29.85	1.8740800E-05
29.9	1.9056320E-05
29.95	1.9377280E-05
30	1.9747200E-05
30.05	2.0166080E-05
30.1	2.0640720E-05
30.15	2.1156160E-05
30.2	2.1689280E-05
30.25	2.2233280E-05
30.3	2.2793600E-05
30.35	2.3367520E-05
30.4	2.3948240E-05
30.45	2.4533040E-05
30.5	2.5123280E-05
30.55	2.5714880E-05
30.6	2.6303760E-05
30.65	2.6888560E-05
30.7	2.7462480E-05
30.75	2.8024160E-05
30.8	2.8581760E-05
30.85	2.9158400E-05
30.9	2.9747280E-05
30.95	3.0323920E-05
31	3.0878800E-05
31.05	3.1406480E-05
31.1	3.1901520E-05
31.15	3.2358480E-05
31.2	3.2771920E-05
31.25	3.3140480E-05
31.3	3.3460080E-05
31.35	3.3723920E-05
31.4	3.3932000E-05
31.45	3.4091120E-05
31.5	3.4206720E-05
31.55	3.4278800E-05
31.6	3.4306000E-05
31.65	3.4277440E-05
31.7	3.4180880E-05
31.75	3.4013600E-05
31.8	3.3796000E-05
31.85	3.3532160E-05
31.9	3.3227520E-05
31.95	3.2886160E-05
32	3.2502640E-05
32.05	3.2078320E-05
32.1	3.1617280E-05
32.15	3.1120880E-05
32.2	3.0587760E-05
32.25	3.0007040E-05
32.3	2.9388240E-05
32.35	2.8753120E-05
32.4	2.8108480E-05
32.45	2.7466560E-05
32.5	2.6831440E-05
32.55	2.6200400E-05
32.6	2.5589760E-05
32.65	2.4995440E-05
32.7	2.4417440E-05
32.75	2.3855760E-05
32.8	2.3314480E-05
32.85	2.2792240E-05
32.9	2.2280880E-05
32.95	2.1777680E-05
33	2.1288080E-05
33.05	2.0822960E-05
33.1	2.0400000E-05
33.15	2.0039600E-05
33.2	1.9736320E-05
33.25	1.9469760E-05
33.3	1.9235840E-05
33.35	1.9035920E-05
33.4	1.8850960E-05
33.45	1.8701360E-05
33.5	1.8589840E-05
33.55	1.8512320E-05
33.6	1.8459280E-05
33.65	1.8426640E-05
33.7	1.8422560E-05
33.75	1.8452480E-05
33.8	1.8505520E-05
33.85	1.8583040E-05
33.9	1.8676880E-05
33.95	1.8785680E-05
34	1.8909440E-05
34.05	1.9046800E-05
34.1	1.9197760E-05
34.15	1.9362320E-05
34.2	1.9533680E-05
34.25	1.9711840E-05
34.3	1.9892720E-05
34.35	2.0073600E-05
34.4	2.0255840E-05
34.45	2.0436720E-05
34.5	2.0613520E-05
34.55	2.0783520E-05
34.6	2.0939920E-05
34.65	2.1089520E-05
34.7	2.1226880E-05
34.75	2.1352000E-05
34.8	2.1470320E-05
34.85	2.1580480E-05
34.9	2.1685200E-05
34.95	2.1777680E-05
35	2.1847040E-05
35.05	2.1896000E-05
35.1	2.1923200E-05
35.15	2.1923200E-05
35.2	2.1905520E-05
35.25	2.1871520E-05
35.3	2.1821200E-05
35.35	2.1753200E-05
35.4	2.1664800E-05
35.45	2.1568240E-05
35.5	2.1478480E-05
35.55	2.1418640E-05
35.6	2.1386000E-05
35.65	2.1354720E-05
35.7	2.1293520E-05
35.75	2.1196960E-05
35.8	2.1086800E-05
35.85	2.0965760E-05
35.9	2.0813440E-05
35.95	2.0636640E-05
36	2.0420400E-05
36.05	2.0160640E-05
36.1	1.9891360E-05
36.15	1.9618000E-05
36.2	1.9336480E-05
36.25	1.9035920E-05
36.3	1.8713600E-05
36.35	1.8383120E-05
36.4	1.8047200E-05
36.45	1.7700400E-05
36.5	1.7344080E-05
36.55	1.6978240E-05
36.6	1.6623280E-05
36.65	1.6275120E-05
36.7	1.5931040E-05
36.75	1.5588320E-05
36.8	1.5214320E-05
36.85	1.4806320E-05
36.9	1.4372480E-05
36.95	1.3919600E-05
37	1.3506160E-05
37.05	1.3156640E-05
37.1	1.2861520E-05
37.15	1.2544640E-05
37.2	1.2182880E-05
37.25	1.1778960E-05
37.3	1.1341040E-05
37.35	1.0890880E-05
37.4	1.0442080E-05
37.45	9.9946400E-06
37.5	9.5444800E-06
37.55	9.1106400E-06
37.6	8.6985600E-06
37.65	8.3150400E-06
37.7	7.9587200E-06
37.75	7.6228000E-06
37.8	7.3100000E-06
37.85	7.0339200E-06
37.9	6.7959200E-06
37.95	6.5946400E-06
38	6.4287200E-06
38.05	6.2913600E-06
38.1	6.1567200E-06
38.15	6.0152800E-06
38.2	5.8684000E-06
38.25	5.7242400E-06
38.3	5.5800800E-06
38.35	5.4304800E-06
38.4	5.2754400E-06
38.45	5.1421600E-06
38.5	5.0333600E-06
38.55	4.9476800E-06
38.6	4.8905600E-06
38.65	4.8293600E-06
38.7	4.7586400E-06
38.75	4.6756800E-06
38.8	4.5927200E-06
38.85	4.5084000E-06
38.9	4.4200000E-06
38.95	4.3302400E-06
39	4.2445600E-06
39.05	4.1656800E-06
39.1	4.0949600E-06
39.15	4.0120000E-06
39.2	3.9127200E-06
39.25	3.7916800E-06
39.3	3.6475200E-06
39.35	3.5156000E-06
39.4	3.4081600E-06
39.45	3.3306400E-06
39.5	3.2898400E-06
39.55	3.2286400E-06
39.6	3.1035200E-06
39.65	2.9049600E-06
39.7	2.6996000E-06
39.75	2.5051200E-06
39.8	2.3256000E-06
39.85	2.1637600E-06
39.9	2.0073600E-06
39.95	1.8482400E-06
40	1.6836800E-06
40.05	1.5245600E-06
40.1	1.3708800E-06
40.15	1.2260980E-06
40.2	1.0921800E-06
40.25	9.7333400E-07
40.3	8.7256400E-07
40.35	7.9189600E-07
40.4	7.1819800E-07
40.45	6.5107200E-07
40.5	5.9006000E-07
40.55	5.3463800E-07
40.6	4.8422000E-07
40.65	4.3815600E-07
40.7	3.9573800E-07
40.75	3.5619200E-07
40.8	3.1868000E-07
40.85	2.8230400E-07
40.9	2.4610600E-07
40.95	2.1057000E-07
41	1.7598200E-07
41.05	1.4168740E-07
41.1	1.0945260E-07
41.15	8.0464000E-08
41.2	5.4679200E-08
41.25	3.2039600E-08
41.3	1.2469160E-08
41.35	0.0
50	0.0
