// Co-polarized Raman gain spectrum for SMF fibers
# df	RamanGain
# [ Hz ] [ 1/m/W ]
# PumpWavelength [ nm ] 1500
0.0000E+00	0.00000E+00
5.0000E+10	1.26410E-06
1.0000E+11	2.52819E-06
1.5000E+11	3.79229E-06
2.0000E+11	5.05638E-06
2.5000E+11	6.32048E-06
3.0000E+11	7.58457E-06
3.5000E+11	9.31797E-06
4.0000E+11	1.10877E-05
4.5000E+11	1.28575E-05
5.0000E+11	1.46272E-05
5.5000E+11	1.63969E-05
6.0000E+11	1.91272E-05
6.5000E+11	2.22242E-05
7.0000E+11	2.53213E-05
7.5000E+11	2.87555E-05
8.0000E+11	3.31798E-05
8.5000E+11	3.76042E-05
9.0000E+11	4.20285E-05
9.5000E+11	4.71470E-05
1.0000E+12	5.24563E-05
1.0500E+12	5.76364E-05
1.1000E+12	6.22366E-05
1.1500E+12	6.66005E-05
1.2000E+12	6.98879E-05
1.2500E+12	7.31754E-05
1.3000E+12	7.86699E-05
1.3500E+12	8.45686E-05
1.4000E+12	9.02361E-05
1.4500E+12	9.51824E-05
1.5000E+12	1.00129E-04
1.5500E+12	1.03888E-04
1.6000E+12	1.07272E-04
1.6500E+12	1.10662E-04
1.7000E+12	1.14202E-04
1.7500E+12	1.17741E-04
1.8000E+12	1.21281E-04
1.8500E+12	1.25329E-04
1.9000E+12	1.29764E-04
1.9500E+12	1.32462E-04
2.0000E+12	1.34815E-04
2.0500E+12	1.37170E-04
2.1000E+12	1.39529E-04
2.1500E+12	1.41889E-04
2.2000E+12	1.44371E-04
2.2500E+12	1.46925E-04
2.3000E+12	1.49479E-04
2.3500E+12	1.51995E-04
2.4000E+12	1.54307E-04
2.4500E+12	1.56620E-04
2.5000E+12	1.58932E-04
2.5500E+12	1.61296E-04
2.6000E+12	1.63683E-04
2.6500E+12	1.66070E-04
2.7000E+12	1.68456E-04
2.7500E+12	1.70999E-04
2.8000E+12	1.73827E-04
2.8500E+12	1.76656E-04
2.9000E+12	1.79056E-04
2.9500E+12	1.81027E-04
3.0000E+12	1.82998E-04
3.0500E+12	1.84969E-04
3.1000E+12	1.86791E-04
3.1500E+12	1.88400E-04
3.2000E+12	1.90009E-04
3.2500E+12	1.91619E-04
3.3000E+12	1.93228E-04
3.3500E+12	1.94907E-04
3.4000E+12	1.96852E-04
3.4500E+12	1.98797E-04
3.5000E+12	2.00223E-04
3.5500E+12	2.01313E-04
3.6000E+12	2.02404E-04
3.6500E+12	2.03494E-04
3.7000E+12	2.04584E-04
3.7500E+12	2.05637E-04
3.8000E+12	2.06495E-04
3.8500E+12	2.07353E-04
3.9000E+12	2.08210E-04
3.9500E+12	2.09068E-04
4.0000E+12	2.09926E-04
4.0500E+12	2.10889E-04
4.1000E+12	2.12066E-04
4.1500E+12	2.13243E-04
4.2000E+12	2.14420E-04
4.2500E+12	2.15597E-04
4.3000E+12	2.16754E-04
4.3500E+12	2.17775E-04
4.4000E+12	2.18796E-04
4.4500E+12	2.19817E-04
4.5000E+12	2.20838E-04
4.5500E+12	2.22067E-04
4.6000E+12	2.23352E-04
4.6500E+12	2.24636E-04
4.7000E+12	2.25921E-04
4.7500E+12	2.27004E-04
4.8000E+12	2.27843E-04
4.8500E+12	2.28682E-04
4.9000E+12	2.29521E-04
4.9500E+12	2.30468E-04
5.0000E+12	2.32237E-04
5.0500E+12	2.34007E-04
5.1000E+12	2.35777E-04
5.1500E+12	2.37546E-04
5.2000E+12	2.40005E-04
5.2500E+12	2.42659E-04
5.3000E+12	2.45314E-04
5.3500E+12	2.47969E-04
5.4000E+12	2.50624E-04
5.4500E+12	2.52973E-04
5.5000E+12	2.55097E-04
5.5500E+12	2.57220E-04
5.6000E+12	2.59344E-04
5.6500E+12	2.61479E-04
5.7000E+12	2.63651E-04
5.7500E+12	2.65822E-04
5.8000E+12	2.67994E-04
5.8500E+12	2.70084E-04
5.9000E+12	2.72150E-04
5.9500E+12	2.74399E-04
6.0000E+12	2.77575E-04
6.0500E+12	2.80274E-04
6.1000E+12	2.82337E-04
6.1500E+12	2.83957E-04
6.2000E+12	2.85466E-04
6.2500E+12	2.88469E-04
6.3000E+12	2.91533E-04
6.3500E+12	2.94579E-04
6.4000E+12	2.97590E-04
6.4500E+12	3.00600E-04
6.5000E+12	3.03611E-04
6.5500E+12	3.06149E-04
6.6000E+12	3.08626E-04
6.6500E+12	3.11104E-04
6.7000E+12	3.13581E-04
6.7500E+12	3.16623E-04
6.8000E+12	3.20123E-04
6.8500E+12	3.23624E-04
6.9000E+12	3.27125E-04
6.9500E+12	3.30883E-04
7.0000E+12	3.35587E-04
7.0500E+12	3.40097E-04
7.1000E+12	3.43922E-04
7.1500E+12	3.47748E-04
7.2000E+12	3.51572E-04
7.2500E+12	3.55291E-04
7.3000E+12	3.59009E-04
7.3500E+12	3.62838E-04
7.4000E+12	3.67481E-04
7.4500E+12	3.72123E-04
7.5000E+12	3.75877E-04
7.5500E+12	3.79417E-04
7.6000E+12	3.82956E-04
7.6500E+12	3.86496E-04
7.7000E+12	3.90243E-04
7.7500E+12	3.94224E-04
7.8000E+12	3.98206E-04
7.8500E+12	4.02188E-04
7.9000E+12	4.05608E-04
7.9500E+12	4.08933E-04
8.0000E+12	4.11996E-04
8.0500E+12	4.15058E-04
8.1000E+12	4.18120E-04
8.1500E+12	4.22483E-04
8.2000E+12	4.27184E-04
8.2500E+12	4.33144E-04
8.3000E+12	4.38949E-04
8.3500E+12	4.43412E-04
8.4000E+12	4.47876E-04
8.4500E+12	4.52323E-04
8.5000E+12	4.56687E-04
8.5500E+12	4.60984E-04
8.6000E+12	4.64793E-04
8.6500E+12	4.68601E-04
8.7000E+12	4.72410E-04
8.7500E+12	4.76637E-04
8.8000E+12	4.81754E-04
8.8500E+12	4.86813E-04
8.9000E+12	4.90759E-04
8.9500E+12	4.94705E-04
9.0000E+12	4.99173E-04
9.0500E+12	5.03935E-04
9.1000E+12	5.08876E-04
9.1500E+12	5.14528E-04
9.2000E+12	5.20311E-04
9.2500E+12	5.24441E-04
9.3000E+12	5.27929E-04
9.3500E+12	5.31417E-04
9.4000E+12	5.35221E-04
9.4500E+12	5.39203E-04
9.5000E+12	5.43185E-04
9.5500E+12	5.47186E-04
9.6000E+12	5.51281E-04
9.6500E+12	5.55375E-04
9.7000E+12	5.59470E-04
9.7500E+12	5.63943E-04
9.8000E+12	5.68487E-04
9.8500E+12	5.73068E-04
9.9000E+12	5.77985E-04
9.9500E+12	5.82902E-04
1.0000E+13	5.87932E-04
1.0050E+13	5.93037E-04
1.0100E+13	5.98143E-04
1.0150E+13	6.03267E-04
1.0200E+13	6.08393E-04
1.0250E+13	6.13519E-04
1.0300E+13	6.17978E-04
1.0350E+13	6.21993E-04
1.0400E+13	6.25804E-04
1.0450E+13	6.29524E-04
1.0500E+13	6.33305E-04
1.0550E+13	6.37328E-04
1.0600E+13	6.41351E-04
1.0650E+13	6.44900E-04
1.0700E+13	6.48046E-04
1.0750E+13	6.51192E-04
1.0800E+13	6.54337E-04
1.0850E+13	6.57594E-04
1.0900E+13	6.61486E-04
1.0950E+13	6.65379E-04
1.1000E+13	6.69272E-04
1.1050E+13	6.73164E-04
1.1100E+13	6.77487E-04
1.1150E+13	6.81911E-04
1.1200E+13	6.86335E-04
1.1250E+13	6.90308E-04
1.1300E+13	6.93407E-04
1.1350E+13	6.96505E-04
1.1400E+13	6.99603E-04
1.1450E+13	7.04243E-04
1.1500E+13	7.09110E-04
1.1550E+13	7.13976E-04
1.1600E+13	7.17953E-04
1.1650E+13	7.20607E-04
1.1700E+13	7.23262E-04
1.1750E+13	7.25916E-04
1.1800E+13	7.29395E-04
1.1850E+13	7.32934E-04
1.1900E+13	7.36473E-04
1.1950E+13	7.40012E-04
1.2000E+13	7.43551E-04
1.2050E+13	7.47090E-04
1.2100E+13	7.50629E-04
1.2150E+13	7.54135E-04
1.2200E+13	7.57481E-04
1.2250E+13	7.60324E-04
1.2300E+13	7.63166E-04
1.2350E+13	7.66009E-04
1.2400E+13	7.68851E-04
1.2450E+13	7.71685E-04
1.2500E+13	7.74517E-04
1.2550E+13	7.77349E-04
1.2600E+13	7.80182E-04
1.2650E+13	7.82393E-04
1.2700E+13	7.84163E-04
1.2750E+13	7.85932E-04
1.2800E+13	7.87702E-04
1.2850E+13	7.89471E-04
1.2900E+13	7.91241E-04
1.2950E+13	7.93010E-04
1.3000E+13	7.93868E-04
1.3050E+13	7.94222E-04
1.3100E+13	7.94576E-04
1.3150E+13	7.94930E-04
1.3200E+13	7.94630E-04
1.3250E+13	7.92861E-04
1.3300E+13	7.91091E-04
1.3350E+13	7.89322E-04
1.3400E+13	7.84589E-04
1.3450E+13	7.79599E-04
1.3500E+13	7.77386E-04
1.3550E+13	7.75172E-04
1.3600E+13	7.72959E-04
1.3650E+13	7.70409E-04
1.3700E+13	7.67664E-04
1.3750E+13	7.64919E-04
1.3800E+13	7.62059E-04
1.3850E+13	7.58611E-04
1.3900E+13	7.55162E-04
1.3950E+13	7.51713E-04
1.4000E+13	7.47726E-04
1.4050E+13	7.43502E-04
1.4100E+13	7.39278E-04
1.4150E+13	7.35804E-04
1.4200E+13	7.34928E-04
1.4250E+13	7.34053E-04
1.4300E+13	7.34557E-04
1.4350E+13	7.35711E-04
1.4400E+13	7.37196E-04
1.4450E+13	7.54348E-04
1.4500E+13	7.73072E-04
1.4550E+13	7.85023E-04
1.4600E+13	7.68253E-04
1.4650E+13	7.43174E-04
1.4700E+13	7.13978E-04
1.4750E+13	6.90652E-04
1.4800E+13	6.65625E-04
1.4850E+13	6.37401E-04
1.4900E+13	6.06786E-04
1.4950E+13	5.71282E-04
1.5000E+13	5.29702E-04
1.5050E+13	4.95769E-04
1.5100E+13	4.60016E-04
1.5150E+13	4.25049E-04
1.5200E+13	3.93494E-04
1.5250E+13	3.70042E-04
1.5300E+13	3.50555E-04
1.5350E+13	3.33811E-04
1.5400E+13	3.20777E-04
1.5450E+13	3.11597E-04
1.5500E+13	3.02823E-04
1.5550E+13	2.94860E-04
1.5600E+13	2.86897E-04
1.5650E+13	2.78934E-04
1.5700E+13	2.72754E-04
1.5750E+13	2.66854E-04
1.5800E+13	2.60954E-04
1.5850E+13	2.55054E-04
1.5900E+13	2.49155E-04
1.5950E+13	2.44345E-04
1.6000E+13	2.40096E-04
1.6050E+13	2.35848E-04
1.6100E+13	2.31600E-04
1.6150E+13	2.27351E-04
1.6200E+13	2.23088E-04
1.6250E+13	2.18780E-04
1.6300E+13	2.14471E-04
1.6350E+13	2.10163E-04
1.6400E+13	2.05854E-04
1.6450E+13	2.01994E-04
1.6500E+13	1.99466E-04
1.6550E+13	1.96938E-04
1.6600E+13	1.94410E-04
1.6650E+13	1.91882E-04
1.6700E+13	1.89354E-04
1.6750E+13	1.86963E-04
1.6800E+13	1.85193E-04
1.6850E+13	1.83423E-04
1.6900E+13	1.81653E-04
1.6950E+13	1.79883E-04
1.7000E+13	1.78114E-04
1.7050E+13	1.76459E-04
1.7100E+13	1.75751E-04
1.7150E+13	1.75043E-04
1.7200E+13	1.74335E-04
1.7250E+13	1.73628E-04
1.7300E+13	1.74998E-04
1.7350E+13	1.76990E-04
1.7400E+13	1.78981E-04
1.7450E+13	1.80973E-04
1.7500E+13	1.82964E-04
1.7550E+13	1.84955E-04
1.7600E+13	1.86947E-04
1.7650E+13	1.90517E-04
1.7700E+13	1.94407E-04
1.7750E+13	1.98296E-04
1.7800E+13	2.03533E-04
1.7850E+13	2.12238E-04
1.7900E+13	2.21998E-04
1.7950E+13	2.34234E-04
1.8000E+13	2.47290E-04
1.8050E+13	2.53190E-04
1.8100E+13	2.59090E-04
1.8150E+13	2.62133E-04
1.8200E+13	2.61264E-04
1.8250E+13	2.56394E-04
1.8300E+13	2.50762E-04
1.8350E+13	2.45005E-04
1.8400E+13	2.37927E-04
1.8450E+13	2.30849E-04
1.8500E+13	2.23771E-04
1.8550E+13	2.15477E-04
1.8600E+13	2.06425E-04
1.8650E+13	1.97306E-04
1.8700E+13	1.83461E-04
1.8750E+13	1.71285E-04
1.8800E+13	1.63445E-04
1.8850E+13	1.55635E-04
1.8900E+13	1.47888E-04
1.8950E+13	1.40142E-04
1.9000E+13	1.33551E-04
1.9050E+13	1.27547E-04
1.9100E+13	1.23527E-04
1.9150E+13	1.19507E-04
1.9200E+13	1.15488E-04
1.9250E+13	1.11468E-04
1.9300E+13	1.07449E-04
1.9350E+13	1.03910E-04
1.9400E+13	1.00371E-04
1.9450E+13	9.68318E-05
1.9500E+13	9.32920E-05
1.9550E+13	8.97517E-05
1.9600E+13	8.62113E-05
1.9650E+13	8.26709E-05
1.9700E+13	7.95778E-05
1.9750E+13	7.83192E-05
1.9800E+13	7.70607E-05
1.9850E+13	7.58021E-05
1.9900E+13	7.45435E-05
1.9950E+13	7.32849E-05
2.0000E+13	7.20263E-05
2.0050E+13	7.07677E-05
2.0100E+13	6.97240E-05
2.0150E+13	6.90162E-05
2.0200E+13	6.83084E-05
2.0250E+13	6.76006E-05
2.0300E+13	6.68928E-05
2.0350E+13	6.61850E-05
2.0400E+13	6.54773E-05
2.0450E+13	6.47695E-05
2.0500E+13	6.41794E-05
2.0550E+13	6.36737E-05
2.0600E+13	6.31681E-05
2.0650E+13	6.26625E-05
2.0700E+13	6.21569E-05
2.0750E+13	6.16513E-05
2.0800E+13	6.12907E-05
2.0850E+13	6.10694E-05
2.0900E+13	6.08481E-05
2.0950E+13	6.06269E-05
2.1000E+13	6.04056E-05
2.1050E+13	6.01843E-05
2.1100E+13	5.99631E-05
2.1150E+13	5.98194E-05
2.1200E+13	5.97337E-05
2.1250E+13	5.96480E-05
2.1300E+13	5.95622E-05
2.1350E+13	5.94765E-05
2.1400E+13	5.93908E-05
2.1450E+13	5.93051E-05
2.1500E+13	5.92194E-05
2.1550E+13	5.91337E-05
2.1600E+13	5.91950E-05
2.1650E+13	5.92729E-05
2.1700E+13	5.93508E-05
2.1750E+13	5.94287E-05
2.1800E+13	5.95066E-05
2.1850E+13	5.95845E-05
2.1900E+13	5.96624E-05
2.1950E+13	5.97403E-05
2.2000E+13	5.98182E-05
2.2050E+13	6.00784E-05
2.2100E+13	6.06683E-05
2.2150E+13	6.12581E-05
2.2200E+13	6.18480E-05
2.2250E+13	6.24379E-05
2.2300E+13	6.30278E-05
2.2350E+13	6.36176E-05
2.2400E+13	6.42075E-05
2.2450E+13	6.47974E-05
2.2500E+13	6.53873E-05
2.2550E+13	6.59772E-05
2.2600E+13	6.65670E-05
2.2650E+13	6.71569E-05
2.2700E+13	6.83288E-05
2.2750E+13	7.06106E-05
2.2800E+13	7.28924E-05
2.2850E+13	7.51742E-05
2.2900E+13	7.74560E-05
2.2950E+13	7.97378E-05
2.3000E+13	8.20196E-05
2.3050E+13	8.54972E-05
2.3100E+13	9.07242E-05
2.3150E+13	9.59512E-05
2.3200E+13	1.01178E-04
2.3250E+13	1.06832E-04
2.3300E+13	1.12686E-04
2.3350E+13	1.17946E-04
2.3400E+13	1.21944E-04
2.3450E+13	1.25941E-04
2.3500E+13	1.29939E-04
2.3550E+13	1.31757E-04
2.3600E+13	1.33232E-04
2.3650E+13	1.34706E-04
2.3700E+13	1.36181E-04
2.3750E+13	1.37656E-04
2.3800E+13	1.38658E-04
2.3850E+13	1.39417E-04
2.3900E+13	1.40175E-04
2.3950E+13	1.40934E-04
2.4000E+13	1.41693E-04
2.4050E+13	1.42451E-04
2.4100E+13	1.42113E-04
2.4150E+13	1.41007E-04
2.4200E+13	1.39901E-04
2.4250E+13	1.38795E-04
2.4300E+13	1.37689E-04
2.4350E+13	1.36583E-04
2.4400E+13	1.35477E-04
2.4450E+13	1.34195E-04
2.4500E+13	1.32819E-04
2.4550E+13	1.31442E-04
2.4600E+13	1.30066E-04
2.4650E+13	1.28689E-04
2.4700E+13	1.27313E-04
2.4750E+13	1.25936E-04
2.4800E+13	1.24560E-04
2.4850E+13	1.22554E-04
2.4900E+13	1.20431E-04
2.4950E+13	1.18308E-04
2.5000E+13	1.16185E-04
2.5050E+13	1.13942E-04
2.5100E+13	1.11582E-04
2.5150E+13	1.09223E-04
2.5200E+13	1.07395E-04
2.5250E+13	1.05625E-04
2.5300E+13	1.03855E-04
2.5350E+13	1.02086E-04
2.5400E+13	1.00316E-04
2.5450E+13	9.85465E-05
2.5500E+13	9.60425E-05
2.5550E+13	9.33882E-05
2.5600E+13	9.07339E-05
2.5650E+13	8.75484E-05
2.5700E+13	8.34187E-05
2.5750E+13	7.92889E-05
2.5800E+13	7.66128E-05
2.5850E+13	7.44009E-05
2.5900E+13	7.21889E-05
2.5950E+13	6.99344E-05
2.6000E+13	6.75745E-05
2.6050E+13	6.52146E-05
2.6100E+13	6.24501E-05
2.6150E+13	5.95003E-05
2.6200E+13	5.66495E-05
2.6250E+13	5.48790E-05
2.6300E+13	5.31314E-05
2.6350E+13	5.14263E-05
2.6400E+13	4.97212E-05
2.6450E+13	4.80162E-05
2.6500E+13	4.63111E-05
2.6550E+13	4.46061E-05
2.6600E+13	4.30952E-05
2.6650E+13	4.20888E-05
2.6700E+13	4.10824E-05
2.6750E+13	4.00760E-05
2.6800E+13	3.90696E-05
2.6850E+13	3.80632E-05
2.6900E+13	3.70568E-05
2.6950E+13	3.60504E-05
2.7000E+13	3.50440E-05
2.7050E+13	3.40376E-05
2.7100E+13	3.32802E-05
2.7150E+13	3.26121E-05
2.7200E+13	3.19440E-05
2.7250E+13	3.12759E-05
2.7300E+13	3.07335E-05
2.7350E+13	3.03798E-05
2.7400E+13	3.00261E-05
2.7450E+13	2.96724E-05
2.7500E+13	2.93187E-05
2.7550E+13	2.89650E-05
2.7600E+13	2.86113E-05
2.7650E+13	2.82576E-05
2.7700E+13	2.79039E-05
2.7750E+13	2.75502E-05
2.7800E+13	2.72527E-05
2.7850E+13	2.69645E-05
2.7900E+13	2.66763E-05
2.7950E+13	2.63881E-05
2.8000E+13	2.60998E-05
2.8050E+13	2.58116E-05
2.8100E+13	2.55234E-05
2.8150E+13	2.52352E-05
2.8200E+13	2.49569E-05
2.8250E+13	2.47228E-05
2.8300E+13	2.44886E-05
2.8350E+13	2.42545E-05
2.8400E+13	2.40203E-05
2.8450E+13	2.37862E-05
2.8500E+13	2.35520E-05
2.8550E+13	2.33458E-05
2.8600E+13	2.32264E-05
2.8650E+13	2.31069E-05
2.8700E+13	2.29874E-05
2.8750E+13	2.28680E-05
2.8800E+13	2.27485E-05
2.8850E+13	2.26290E-05
2.8900E+13	2.25096E-05
2.8950E+13	2.25873E-05
2.9000E+13	2.26822E-05
2.9050E+13	2.27771E-05
2.9100E+13	2.28720E-05
2.9150E+13	2.30703E-05
2.9200E+13	2.32720E-05
2.9250E+13	2.34737E-05
2.9300E+13	2.36754E-05
2.9350E+13	2.38237E-05
2.9400E+13	2.39406E-05
2.9450E+13	2.40576E-05
2.9500E+13	2.41745E-05
2.9550E+13	2.42915E-05
2.9600E+13	2.44084E-05
2.9650E+13	2.45254E-05
2.9700E+13	2.47144E-05
2.9750E+13	2.49356E-05
2.9800E+13	2.51568E-05
2.9850E+13	2.53780E-05
2.9900E+13	2.55992E-05
2.9950E+13	2.58204E-05
3.0000E+13	2.60416E-05
3.0050E+13	2.65335E-05
3.0100E+13	2.71146E-05
3.0150E+13	2.76957E-05
3.0200E+13	2.82768E-05
3.0250E+13	2.88579E-05
3.0300E+13	2.94390E-05
3.0350E+13	2.99327E-05
3.0400E+13	3.03852E-05
3.0450E+13	3.08377E-05
3.0500E+13	3.12902E-05
3.0550E+13	3.17849E-05
3.0600E+13	3.23998E-05
3.0650E+13	3.30147E-05
3.0700E+13	3.36296E-05
3.0750E+13	3.42445E-05
3.0800E+13	3.48594E-05
3.0850E+13	3.54674E-05
3.0900E+13	3.60572E-05
3.0950E+13	3.66469E-05
3.1000E+13	3.72367E-05
3.1050E+13	3.78264E-05
3.1100E+13	3.84357E-05
3.1150E+13	3.93206E-05
3.1200E+13	4.02055E-05
3.1250E+13	4.10905E-05
3.1300E+13	4.19754E-05
3.1350E+13	4.28604E-05
3.1400E+13	4.39996E-05
3.1450E+13	4.51795E-05
3.1500E+13	4.63594E-05
3.1550E+13	4.75393E-05
3.1600E+13	4.87192E-05
3.1650E+13	4.98213E-05
3.1700E+13	5.08829E-05
3.1750E+13	5.19446E-05
3.1800E+13	5.30062E-05
3.1850E+13	5.38090E-05
3.1900E+13	5.40619E-05
3.1950E+13	5.43148E-05
3.2000E+13	5.45677E-05
3.2050E+13	5.48206E-05
3.2100E+13	5.50735E-05
3.2150E+13	5.52078E-05
3.2200E+13	5.49866E-05
3.2250E+13	5.47655E-05
3.2300E+13	5.45443E-05
3.2350E+13	5.43231E-05
3.2400E+13	5.41019E-05
3.2450E+13	5.38807E-05
3.2500E+13	5.35452E-05
3.2550E+13	5.29553E-05
3.2600E+13	5.23653E-05
3.2650E+13	5.17753E-05
3.2700E+13	5.11853E-05
3.2750E+13	5.05453E-05
3.2800E+13	4.94837E-05
3.2850E+13	4.84221E-05
3.2900E+13	4.73605E-05
3.2950E+13	4.62989E-05
3.3000E+13	4.57807E-05
3.3050E+13	4.54267E-05
3.3100E+13	4.50726E-05
3.3150E+13	4.47186E-05
3.3200E+13	4.41354E-05
3.3250E+13	4.32507E-05
3.3300E+13	4.23661E-05
3.3350E+13	4.14815E-05
3.3400E+13	4.05969E-05
3.3450E+13	3.96689E-05
3.3500E+13	3.85923E-05
3.3550E+13	3.75157E-05
3.3600E+13	3.64391E-05
3.3650E+13	3.53624E-05
3.3700E+13	3.42858E-05
3.3750E+13	3.32505E-05
3.3800E+13	3.24418E-05
3.3850E+13	3.16331E-05
3.3900E+13	3.08244E-05
3.3950E+13	3.00157E-05
3.4000E+13	2.92071E-05
3.4050E+13	2.86411E-05
3.4100E+13	2.80879E-05
3.4150E+13	2.75348E-05
3.4200E+13	2.69816E-05
3.4250E+13	2.64284E-05
3.4300E+13	2.60300E-05
3.4350E+13	2.58637E-05
3.4400E+13	2.56974E-05
3.4450E+13	2.55311E-05
3.4500E+13	2.53648E-05
3.4550E+13	2.51985E-05
3.4600E+13	2.50323E-05
3.4650E+13	2.49303E-05
3.4700E+13	2.48438E-05
3.4750E+13	2.47573E-05
3.4800E+13	2.46708E-05
3.4850E+13	2.46250E-05
3.4900E+13	2.46250E-05
3.4950E+13	2.46250E-05
3.5000E+13	2.46250E-05
3.5050E+13	0.00000E+00
10.000E+13	0.00000E+00
