// Co-polarized Raman gain spectrum for IDF fiber		
# df	RamanGain	
# [THz]	[1/m/W]	
# PumpFrequency	[THz]	206.753419
0	0.0
0.05	4.1125000E-06 
0.1	8.2250000E-06 
0.15	1.2337500E-05 
0.2	1.6450000E-05 
0.25	2.0562500E-05 
0.3	2.4675000E-05 
0.35	2.8787500E-05 
0.4	3.2900000E-05
0.45	4.0100400E-05 
0.5	4.5947200E-05 
0.55	5.2583600E-05 
0.6	6.0047200E-05 
0.65	6.8413200E-05 
0.7	7.7738000E-05 
0.75	8.8012200E-05 
0.8	9.9179400E-05 
0.85	1.1126310E-04 
0.9	1.2412700E-04 
0.95	1.3755490E-04 
1	1.5154680E-04 
1.05	1.6593820E-04 
1.1	1.8055990E-04 
1.15	1.9520510E-04 
1.2	2.0963420E-04 
1.25	2.2370120E-04 
1.3	2.3708220E-04 
1.35	2.4984260E-04 
1.4	2.6204860E-04 
1.45	2.7363400E-04 
1.5	2.8464140E-04 
1.55	2.9511300E-04 
1.6	3.0513820E-04 
1.65	3.1484840E-04 
1.7	3.2421540E-04 
1.75	3.3318300E-04 
1.8	3.4180280E-04 
1.85	3.5016420E-04 
1.9	3.5821060E-04 
1.95	3.6591380E-04 
2	3.7331640E-04 
2.05	3.8140980E-04 
2.1	3.8878400E-04 
2.15	3.9589040E-04 
2.2	4.0266780E-04 
2.25	4.0906920E-04 
2.3	4.1518860E-04 
2.35	4.2115300E-04 
2.4	4.2696680E-04 
2.45	4.3263500E-04 
2.5	4.3812940E-04 
2.55	4.4346860E-04 
2.6	4.4864800E-04 
2.65	4.5356420E-04 
2.7	4.5823600E-04 
2.75	4.6273860E-04 
2.8	4.6707660E-04 
2.85	4.7125960E-04 
2.9	4.7529700E-04 
2.95	4.7918860E-04 
3	4.8293440E-04 
3.05	4.8646420E-04 
3.1	4.8979180E-04 
3.15	4.9294540E-04 
3.2	4.9593460E-04 
3.25	4.9879220E-04 
3.3	5.0154180E-04 
3.35	5.0420660E-04 
3.4	5.0679160E-04 
3.45	5.0931560E-04 
3.5	5.1173600E-04 
3.55	5.1393560E-04 
3.6	5.1593780E-04 
3.65	5.1778960E-04 
3.7	5.1962260E-04 
3.75	5.2144620E-04 
3.8	5.2325100E-04 
3.85	5.2488660E-04 
3.9	5.2638120E-04 
3.95	5.2778660E-04 
4	5.2913080E-04 
4.05	5.3043740E-04 
4.1	5.3173920E-04 
4.15	5.3304580E-04 
4.2	5.3436660E-04 
4.25	5.3580000E-04 
4.3	5.3734640E-04 
4.35	5.3878920E-04 
4.4	5.4012400E-04 
4.45	5.4139780E-04 
4.5	5.4279840E-04 
4.55	5.4433520E-04 
4.6	5.4600380E-04 
4.65	5.4768640E-04 
4.7	5.4938300E-04 
4.75	5.5120200E-04 
4.8	5.5323240E-04 
4.85	5.5543660E-04 
4.9	5.5749060E-04 
4.95	5.5941280E-04 
5	5.6123640E-04 
5.05	5.6320100E-04 
5.1	5.6529720E-04 
5.15	5.6755800E-04 
5.2	5.7003480E-04 
5.25	5.7270920E-04 
5.3	5.7515780E-04 
5.35	5.7736220E-04 
5.4	5.7939260E-04 
5.45	5.8167200E-04 
5.5	5.8431340E-04 
5.55	5.8729320E-04 
5.6	5.9044220E-04 
5.65	5.9364760E-04 
5.7	5.9694700E-04 
5.75	6.0036860E-04 
5.8	6.0391240E-04 
5.85	6.0751260E-04 
5.9	6.1111280E-04 
5.95	6.1470840E-04 
6	6.1823340E-04 
6.05	6.2172080E-04 
6.1	6.2537740E-04 
6.15	6.2935820E-04 
6.2	6.3364000E-04 
6.25	6.3804860E-04 
6.3	6.4247600E-04 
6.35	6.4690800E-04 
6.4	6.5142940E-04 
6.45	6.5584740E-04 
6.5	6.6020900E-04 
6.55	6.6463640E-04 
6.6	6.6915780E-04 
6.65	6.7376860E-04 
6.7	6.7868000E-04 
6.75	6.8383120E-04 
6.8	6.8886020E-04 
6.85	6.9375760E-04 
6.9	6.9878200E-04 
6.95	7.0401300E-04 
7	7.0948860E-04 
7.05	7.1509560E-04 
7.1	7.2113040E-04 
7.15	7.2752720E-04 
7.2	7.3401780E-04 
7.25	7.4059780E-04 
7.3	7.4720600E-04 
7.35	7.5380020E-04 
7.4	7.6035660E-04 
7.45	7.6688960E-04 
7.5	7.7342740E-04 
7.55	7.8004960E-04 
7.6	7.8696800E-04 
7.65	7.9431420E-04 
7.7	8.0198460E-04 
7.75	8.0982420E-04 
7.8	8.1766380E-04 
7.85	8.2585120E-04 
7.9	8.3443800E-04 
7.95	8.4348560E-04 
8	8.5259880E-04 
8.05	8.6145360E-04 
8.1	8.7002180E-04 
8.15	8.7865100E-04 
8.2	8.8750580E-04 
8.25	8.9653440E-04 
8.3	9.0558660E-04 
8.35	9.1460120E-04 
8.4	9.2362060E-04 
8.45	9.3266340E-04 
8.5	9.4165920E-04 
8.55	9.5068320E-04 
8.6	9.5991860E-04 
8.65	9.6930920E-04 
8.7	9.7863400E-04 
8.75	9.8768160E-04 
8.8	9.9646580E-04 
8.85	1.0051844E-03
8.9	1.0138088E-03
8.95	1.0223534E-03
9	1.0309686E-03
9.05	1.0396682E-03
9.1	1.0484150E-03
9.15	1.0571804E-03
9.2	1.0659600E-03
9.25	1.0746692E-03
9.3	1.0833312E-03
9.35	1.0922048E-03
9.4	1.1013276E-03
9.45	1.1107228E-03
9.5	1.1203484E-03
9.55	1.1301856E-03
9.6	1.1402342E-03
9.65	1.1501042E-03
9.7	1.1597344E-03
9.75	1.1693788E-03
9.8	1.1790656E-03
9.85	1.1889214E-03
9.9	1.1989700E-03
9.95	1.2091408E-03
10	1.2197112E-03
10.05	1.2307844E-03
10.1	1.2423276E-03
10.15	1.2539412E-03
10.2	1.2655502E-03
10.25	1.2772626E-03
10.3	1.2890832E-03
10.35	1.3010540E-03
10.4	1.3131800E-03
10.45	1.3254470E-03
10.5	1.3376388E-03
10.55	1.3497460E-03
10.6	1.3619426E-03
10.65	1.3742848E-03
10.7	1.3865752E-03
10.75	1.3987154E-03
10.8	1.4107286E-03
10.85	1.4226948E-03
10.9	1.4346046E-03
10.95	1.4464250E-03
11	1.4582032E-03
11.05	1.4700426E-03
11.1	1.4819242E-03
11.15	1.4936272E-03
11.2	1.5051092E-03
11.25	1.5163658E-03
11.3	1.5275894E-03
11.35	1.5387988E-03
11.4	1.5498674E-03
11.45	1.5607666E-03
11.5	1.5713792E-03
11.55	1.5817898E-03
11.6	1.5922190E-03
11.65	1.6027188E-03
11.7	1.6133362E-03
11.75	1.6240240E-03
11.8	1.6345802E-03
11.85	1.6450330E-03
11.9	1.6554952E-03
11.95	1.6658916E-03
12	1.6761798E-03
12.05	1.6863742E-03
12.1	1.6964744E-03
12.15	1.7064478E-03
12.2	1.7164166E-03
12.25	1.7264182E-03
12.3	1.7364620E-03
12.35	1.7465106E-03
12.4	1.7563712E-03
12.45	1.7659592E-03
12.5	1.7752558E-03
12.55	1.7842188E-03
12.6	1.7928714E-03
12.65	1.8012844E-03
12.7	1.8095000E-03
12.75	1.8172174E-03
12.8	1.8241734E-03
12.85	1.8323796E-03
12.9	1.8396364E-03
12.95	1.8463716E-03
13	1.8524956E-03
13.05	1.8579336E-03
13.1	1.8625772E-03
13.15	1.8661350E-03
13.2	1.8684380E-03
13.25	1.8693546E-03
13.3	1.8691948E-03
13.35	1.8683394E-03
13.4	1.8663560E-03
13.45	1.8630566E-03
13.5	1.8581498E-03
13.55	1.8518800E-03
13.6	1.8448158E-03
13.65	1.8372160E-03
13.7	1.8290990E-03
13.75	1.8206860E-03
13.8	1.8117420E-03
13.85	1.8028072E-03
13.9	1.7944554E-03
13.95	1.7871516E-03
14	1.7810180E-03
14.05	1.7765624E-03
14.1	1.7729340E-03
14.15	1.7698180E-03
14.2	1.7673270E-03
14.25	1.7671202E-03
14.3	1.7717402E-03
14.35	1.7820850E-03
14.4	1.7920866E-03
14.45	1.8012234E-03
14.5	1.8093732E-03
14.55	1.8145056E-03
14.6	1.8139040E-03
14.65	1.8079772E-03
14.7	1.7964246E-03
14.75	1.7777704E-03
14.8	1.7563712E-03
14.85	1.7288480E-03
14.9	1.6952712E-03
14.95	1.6556362E-03
15	1.6105538E-03
15.05	1.5611332E-03
15.1	1.5080468E-03
15.15	1.4515716E-03
15.2	1.3930612E-03
15.25	1.3334418E-03
15.3	1.2731360E-03
15.35	1.2135542E-03
15.4	1.1558898E-03
15.45	1.1005708E-03
15.5	1.0482410E-03
15.55	9.9928580E-04 
15.6	9.5362060E-04 
15.65	9.1163080E-04 
15.7	8.7317540E-04 
15.75	8.3805700E-04 
15.8	8.0622400E-04 
15.85	7.7765740E-04 
15.9	7.5204700E-04 
15.95	7.2892300E-04 
16	7.0799860E-04 
16.05	6.8914220E-04 
16.1	6.7189800E-04 
16.15	6.5596020E-04 
16.2	6.4126800E-04 
16.25	6.2738900E-04 
16.3	6.1461440E-04 
16.35	6.0279860E-04 
16.4	5.9168780E-04 
16.45	5.8127720E-04 
16.5	5.7165160E-04 
16.55	5.6269340E-04 
16.6	5.5455780E-04 
16.65	5.4722580E-04 
16.7	5.4059400E-04 
16.75	5.3489760E-04 
16.8	5.3022580E-04 
16.85	5.2660220E-04 
16.9	5.2394660E-04 
16.95	5.2222640E-04 
17	5.2127240E-04 
17.05	5.2123940E-04 
17.1	5.2215120E-04 
17.15	5.2390900E-04 
17.2	5.2641420E-04 
17.25	5.2969480E-04 
17.3	5.3384960E-04 
17.35	5.3899140E-04 
17.4	5.4506840E-04 
17.45	5.5245680E-04 
17.5	5.6101080E-04 
17.55	5.7029340E-04 
17.6	5.8032320E-04 
17.65	5.9105800E-04 
17.7	6.0189620E-04 
17.75	6.1270140E-04 
17.8	6.2279700E-04 
17.85	6.3147800E-04 
17.9	6.3815200E-04 
17.95	6.4236780E-04 
18	6.4366980E-04 
18.05	6.4188840E-04 
18.1	6.3692060E-04 
18.15	6.2870020E-04 
18.2	6.1704900E-04 
18.25	6.0251660E-04 
18.3	5.8560600E-04 
18.35	5.6681540E-04 
18.4	5.4676040E-04 
18.45	5.2625440E-04 
18.5	5.0525940E-04 
18.55	4.8431620E-04 
18.6	4.6415800E-04 
18.65	4.4509480E-04 
18.7	4.2704680E-04 
18.75	4.1037120E-04 
18.8	3.9472020E-04 
18.85	3.8021600E-04 
18.9	3.6694320E-04 
18.95	3.5487360E-04 
19	3.4390380E-04 
19.05	3.3397740E-04 
19.1	3.2496740E-04 
19.15	3.1665780E-04 
19.2	3.0880420E-04 
19.25	3.0169300E-04 
19.3	2.9530100E-04 
19.35	2.8950600E-04 
19.4	2.8420900E-04 
19.45	2.7929760E-04 
19.5	2.7461160E-04 
19.55	2.7025000E-04 
19.6	2.6610460E-04 
19.65	2.6213320E-04 
19.7	2.5834960E-04 
19.75	2.5501740E-04 
19.8	2.5207520E-04 
19.85	2.4949480E-04 
19.9	2.4717780E-04 
19.95	2.4493120E-04 
20	2.4274100E-04 
20.05	2.4070120E-04 
20.1	2.3879760E-04 
20.15	2.3696460E-04 
20.2	2.3521160E-04 
20.25	2.3358540E-04 
20.3	2.3206720E-04 
20.35	2.3052100E-04 
20.4	2.2889000E-04 
20.45	2.2715100E-04 
20.5	2.2535100E-04 
20.55	2.2358380E-04 
20.6	2.2187300E-04 
20.65	2.2031260E-04 
20.7	2.1888840E-04 
20.75	2.1749720E-04 
20.8	2.1606380E-04 
20.85	2.1471960E-04 
20.9	2.1349280E-04 
20.95	2.1229900E-04 
21	2.1124160E-04 
21.05	2.1015580E-04 
21.1	2.0898560E-04 
21.15	2.0774000E-04 
21.2	2.0660740E-04 
21.25	2.0554040E-04 
21.3	2.0448300E-04 
21.35	2.0336900E-04 
21.4	2.0216580E-04 
21.45	2.0093920E-04 
21.5	1.9972180E-04 
21.55	1.9854680E-04 
21.6	1.9733890E-04 
21.65	1.9606990E-04 
21.7	1.9462700E-04 
21.75	1.9305250E-04 
21.8	1.9163780E-04 
21.85	1.9051450E-04 
21.9	1.8987530E-04 
21.95	1.8953220E-04 
22	1.8920320E-04 
22.05	1.8859220E-04 
22.1	1.8791540E-04 
22.15	1.8733260E-04 
22.2	1.8696130E-04 
22.25	1.8666990E-04 
22.3	1.8646310E-04 
22.35	1.8632210E-04 
22.4	1.8615760E-04 
22.45	1.8607300E-04 
22.5	1.8609180E-04 
22.55	1.8617170E-04 
22.6	1.8641140E-04 
22.65	1.8688140E-04 
22.7	1.8750180E-04 
22.75	1.8829610E-04 
22.8	1.8957450E-04 
22.85	1.9183050E-04 
22.9	1.9519100E-04 
22.95	1.9931760E-04 
23	2.0391900E-04 
23.05	2.0868940E-04 
23.1	2.1408040E-04 
23.15	2.2080140E-04 
23.2	2.2864560E-04 
23.25	2.3736420E-04 
23.3	2.4656200E-04 
23.35	2.5595740E-04 
23.4	2.6541840E-04 
23.45	2.7510040E-04 
23.5	2.8537000E-04 
23.55	2.9571940E-04 
23.6	3.0558940E-04 
23.65	3.1465560E-04 
23.7	3.2265040E-04 
23.75	3.2969560E-04 
23.8	3.3619100E-04 
23.85	3.4197200E-04 
23.9	3.4629140E-04 
23.95	3.4904080E-04 
24	3.5023000E-04 
24.05	3.5005140E-04 
24.1	3.4922880E-04 
24.15	3.4807260E-04 
24.2	3.4606100E-04 
24.25	3.4339620E-04 
24.3	3.4016720E-04 
24.35	3.3664700E-04 
24.4	3.3318300E-04 
24.45	3.3003880E-04 
24.5	3.2726580E-04 
24.55	3.2411200E-04 
24.6	3.2048360E-04 
24.65	3.1669540E-04 
24.7	3.1339140E-04 
24.75	3.1042560E-04 
24.8	3.0744120E-04 
24.85	3.0395380E-04 
24.9	2.9969080E-04 
24.95	2.9473700E-04 
25	2.8899840E-04 
25.05	2.8189660E-04 
25.1	2.7354480E-04 
25.15	2.6427640E-04 
25.2	2.5448620E-04 
25.25	2.4432960E-04 
25.3	2.3380160E-04 
25.35	2.2276120E-04 
25.4	2.1131200E-04 
25.45	1.9974060E-04 
25.5	1.9153440E-04 
25.55	1.8306500E-04 
25.6	1.7455800E-04 
25.65	1.6603690E-04 
25.7	1.5764270E-04 
25.75	1.4937540E-04 
25.8	1.4129610E-04 
25.85	1.3346590E-04 
25.9	1.2600700E-04 
25.95	1.1904630E-04 
26	1.1259790E-04 
26.05	1.0654900E-04 
26.1	1.0087610E-04 
26.15	9.5602700E-05 
26.2	9.0752300E-05 
26.25	8.6353100E-05 
26.3	8.2419200E-05 
26.35	7.9016400E-05 
26.4	7.6191700E-05 
26.45	7.3968600E-05 
26.5	7.2083900E-05 
26.55	7.0509400E-05 
26.6	6.9202800E-05 
26.65	6.8093600E-05 
26.7	6.7083100E-05 
26.75	6.6096100E-05 
26.8	6.5019800E-05 
26.85	6.4089200E-05 
26.9	6.3379500E-05 
26.95	6.2862500E-05 
27	6.2430100E-05 
27.05	6.2049400E-05 
27.1	6.1701600E-05 
27.15	6.1438400E-05 
27.2	6.1302100E-05 
27.25	6.1283300E-05 
27.3	6.1222200E-05 
27.35	6.1057700E-05 
27.4	6.0686400E-05 
27.45	6.0164700E-05 
27.5	5.9628900E-05 
27.55	5.9088400E-05 
27.6	5.8632500E-05 
27.65	5.8209500E-05 
27.7	5.7795900E-05 
27.75	5.7387000E-05 
27.8	5.7039200E-05 
27.85	5.6761900E-05 
27.9	5.6555100E-05 
27.95	5.6282500E-05 
28	5.5934700E-05 
28.05	5.5530500E-05 
28.1	5.5121600E-05 
28.15	5.4693900E-05 
28.2	5.4252100E-05 
28.25	5.3791500E-05 
28.3	5.3392000E-05 
28.35	5.3091200E-05 
28.4	5.2954900E-05 
28.45	5.2903200E-05 
28.5	5.2837400E-05 
28.55	5.2734000E-05 
28.6	5.2644700E-05 
28.65	5.2588300E-05 
28.7	5.2564800E-05 
28.75	5.2597700E-05 
28.8	5.2715200E-05 
28.85	5.2907900E-05 
28.9	5.3124100E-05 
28.95	5.3349700E-05 
29	5.3580000E-05 
29.05	5.3824400E-05 
29.1	5.4111100E-05 
29.15	5.4449500E-05 
29.2	5.4839600E-05 
29.25	5.5187400E-05 
29.3	5.5511700E-05 
29.35	5.5892400E-05 
29.4	5.6348300E-05 
29.45	5.6907600E-05 
29.5	5.7575000E-05 
29.55	5.8345800E-05 
29.6	5.9229400E-05 
29.65	6.0216400E-05 
29.7	6.1311500E-05 
29.75	6.2486500E-05 
29.8	6.3638000E-05 
29.85	6.4766000E-05 
29.9	6.5856400E-05 
29.95	6.6965600E-05 
30	6.8244000E-05 
30.05	6.9691600E-05 
30.1	7.1331900E-05 
30.15	7.3113200E-05 
30.2	7.4955600E-05 
30.25	7.6835600E-05 
30.3	7.8772000E-05 
30.35	8.0755400E-05 
30.4	8.2762300E-05 
30.45	8.4783300E-05 
30.5	8.6823100E-05 
30.55	8.8867600E-05 
30.6	9.0902700E-05 
30.65	9.2923700E-05 
30.7	9.4907100E-05 
30.75	9.6848200E-05 
30.8	9.8775200E-05 
30.85	1.0076800E-04 
30.9	1.0280310E-04 
30.95	1.0479590E-04 
31	1.0671350E-04 
31.05	1.0853710E-04 
31.1	1.1024790E-04 
31.15	1.1182710E-04 
31.2	1.1325590E-04 
31.25	1.1452960E-04 
31.3	1.1563410E-04 
31.35	1.1654590E-04 
31.4	1.1726500E-04 
31.45	1.1781490E-04 
31.5	1.1821440E-04 
31.55	1.1846350E-04 
31.6	1.1855750E-04 
31.65	1.1845880E-04 
31.7	1.1812510E-04 
31.75	1.1754700E-04 
31.8	1.1679500E-04 
31.85	1.1588320E-04 
31.9	1.1483040E-04 
31.95	1.1365070E-04 
32	1.1232530E-04 
32.05	1.1085890E-04 
32.1	1.0926560E-04 
32.15	1.0755010E-04 
32.2	1.0570770E-04 
32.25	1.0370080E-04 
32.3	1.0156230E-04 
32.35	9.9367400E-05 
32.4	9.7139600E-05 
32.45	9.4921200E-05 
32.5	9.2726300E-05 
32.55	9.0545500E-05 
32.6	8.8435200E-05 
32.65	8.6381300E-05 
32.7	8.4383800E-05 
32.75	8.2442700E-05 
32.8	8.0572100E-05 
32.85	7.8767300E-05 
32.9	7.7000100E-05 
32.95	7.5261100E-05 
33	7.3569100E-05 
33.05	7.1961700E-05 
33.1	7.0500000E-05
33.15	6.9254500E-05 
33.2	6.8206400E-05 
33.25	6.7285200E-05 
33.3	6.6476800E-05 
33.35	6.5785900E-05 
33.4	6.5146700E-05 
33.45	6.4629700E-05 
33.5	6.4244300E-05 
33.55	6.3976400E-05 
33.6	6.3793100E-05 
33.65	6.3680300E-05 
33.7	6.3666200E-05 
33.75	6.3769600E-05 
33.8	6.3952900E-05 
33.85	6.4220800E-05 
33.9	6.4545100E-05 
33.95	6.4921100E-05 
34	6.5348800E-05 
34.05	6.5823500E-05 
34.1	6.6345200E-05 
34.15	6.6913900E-05 
34.2	6.7506100E-05 
34.25	6.8121800E-05 
34.3	6.8746900E-05 
34.35	6.9372000E-05 
34.4	7.0001800E-05 
34.45	7.0626900E-05 
34.5	7.1237900E-05 
34.55	7.1825400E-05 
34.6	7.2365900E-05 
34.65	7.2882900E-05 
34.7	7.3357600E-05 
34.75	7.3790000E-05 
34.8	7.4198900E-05 
34.85	7.4579600E-05 
34.9	7.4941500E-05 
34.95	7.5261100E-05 
35	7.5500800E-05 
35.05	7.5670000E-05 
35.1	7.5764000E-05 
35.15	7.5764000E-05 
35.2	7.5702900E-05 
35.25	7.5585400E-05 
35.3	7.5411500E-05 
35.35	7.5176500E-05 
35.4	7.4871000E-05 
35.45	7.4537300E-05 
35.5	7.4227100E-05 
35.55	7.4020300E-05 
35.6	7.3907500E-05 
35.65	7.3799400E-05 
35.7	7.3587900E-05 
35.75	7.3254200E-05 
35.8	7.2873500E-05 
35.85	7.2455200E-05 
35.9	7.1928800E-05 
35.95	7.1317800E-05 
36	7.0570500E-05 
36.05	6.9672800E-05 
36.1	6.8742200E-05 
36.15	6.7797500E-05 
36.2	6.6824600E-05 
36.25	6.5785900E-05 
36.3	6.4672000E-05 
36.35	6.3529900E-05 
36.4	6.2369000E-05 
36.45	6.1170500E-05 
36.5	5.9939100E-05 
36.55	5.8674800E-05 
36.6	5.7448100E-05 
36.65	5.6244900E-05 
36.7	5.5055800E-05 
36.75	5.3871400E-05 
36.8	5.2578900E-05 
36.85	5.1168900E-05 
36.9	4.9669600E-05 
36.95	4.8104500E-05 
37	4.6675700E-05 
37.05	4.5467800E-05 
37.1	4.4447900E-05 
37.15	4.3352800E-05 
37.2	4.2102600E-05 
37.25	4.0706700E-05 
37.3	3.9193300E-05 
37.35	3.7637600E-05 
37.4	3.6086600E-05 
37.45	3.4540300E-05 
37.5	3.2984600E-05 
37.55	3.1485300E-05 
37.6	3.0061200E-05 
37.65	2.8735800E-05 
37.7	2.7504400E-05 
37.75	2.6343500E-05 
37.8	2.5262500E-05 
37.85	2.4308400E-05 
37.9	2.3485900E-05 
37.95	2.2790300E-05 
38	2.2216900E-05 
38.05	2.1742200E-05 
38.1	2.1276900E-05 
38.15	2.0788100E-05 
38.2	2.0280500E-05 
38.25	1.9782300E-05 
38.3	1.9284100E-05 
38.35	1.8767100E-05 
38.4	1.8231300E-05 
38.45	1.7770700E-05 
38.5	1.7394700E-05 
38.55	1.7098600E-05 
38.6	1.6901200E-05 
38.65	1.6689700E-05 
38.7	1.6445300E-05 
38.75	1.6158600E-05 
38.8	1.5871900E-05 
38.85	1.5580500E-05 
38.9	1.5275000E-05 
38.95	1.4964800E-05 
39	1.4668700E-05 
39.05	1.4396100E-05 
39.1	1.4151700E-05 
39.15	1.3865000E-05 
39.2	1.3521900E-05 
39.25	1.3103600E-05 
39.3	1.2605400E-05 
39.35	1.2149500E-05 
39.4	1.1778200E-05 
39.45	1.1510300E-05 
39.5	1.1369300E-05 
39.55	1.1157800E-05 
39.6	1.0725400E-05 
39.65	1.0039200E-05 
39.7	9.3295000E-06 
39.75	8.6574000E-06 
39.8	8.0370000E-06 
39.85	7.4777000E-06 
39.9	6.9372000E-06 
39.95	6.3873000E-06 
40	5.8186000E-06 
40.05	5.2687000E-06 
40.1	4.7376000E-06 
40.15	4.2372600E-06 
40.2	3.7744400E-06 
40.25	3.3637200E-06 
40.3	3.0154800E-06 
40.35	2.7367000E-06 
40.4	2.4820000E-06 
40.45	2.2500400E-06 
40.5	2.0391800E-06 
40.55	1.8476400E-06 
40.6	1.6734000E-06 
40.65	1.5142200E-06 
40.7	1.3676200E-06 
40.75	1.2309600E-06 
40.8	1.1013200E-06 
40.85	9.7562000E-07 
40.9	8.5052000E-07 
40.95	7.2770000E-07 
41	6.0818000E-07 
41.05	4.8966000E-07 
41.1	3.7826000E-07 
41.15	2.7808000E-07 
41.2	1.8896600E-07 
41.25	1.1072400E-07 
41.3	4.3092000E-08 
41.35	0.0
50	0.0
