1.4000000000E+03	6.6285839383E+01	
1.4010000000E+03	6.6345976732E+01	
1.4020000000E+03	6.6406200962E+01	
1.4030000000E+03	6.6466503275E+01	
1.4040000000E+03	6.6526892723E+01	
1.4050000000E+03	6.6587362353E+01	
1.4060000000E+03	6.6647920765E+01	
1.4070000000E+03	6.6708557724E+01	
1.4080000000E+03	6.6769282401E+01	
1.4090000000E+03	6.6830092141E+01	
1.4100000000E+03	6.6890977907E+01	
1.4110000000E+03	6.6951961019E+01	
1.4120000000E+03	6.7013014061E+01	
1.4130000000E+03	6.7074167080E+01	
1.4140000000E+03	6.7135391582E+01	
1.4150000000E+03	6.7196704828E+01	
1.4160000000E+03	6.7258106980E+01	
1.4170000000E+03	6.7319598186E+01	
1.4180000000E+03	6.7381172191E+01	
1.4190000000E+03	6.7442827156E+01	
1.4200000000E+03	6.7504571626E+01	
1.4210000000E+03	6.7566396263E+01	
1.4220000000E+03	6.7628311205E+01	
1.4230000000E+03	6.7690310258E+01	
1.4240000000E+03	6.7752399420E+01	
1.4250000000E+03	6.7814578842E+01	
1.4260000000E+03	6.7876839045E+01	
1.4270000000E+03	6.7939183490E+01	
1.4280000000E+03	6.8001619791E+01	
1.4290000000E+03	6.8064146965E+01	
1.4300000000E+03	6.8126755400E+01	
1.4310000000E+03	6.8189457730E+01	
1.4320000000E+03	6.8252233787E+01	
1.4330000000E+03	6.8315111176E+01	
1.4340000000E+03	6.8378070303E+01	
1.4350000000E+03	6.8441121189E+01	
1.4360000000E+03	6.8504262077E+01	
1.4370000000E+03	6.8567492185E+01	
1.4380000000E+03	6.8630804519E+01	
1.4390000000E+03	6.8694209236E+01	
1.4400000000E+03	6.8757695623E+01	
1.4410000000E+03	6.8821280938E+01	
1.4420000000E+03	6.8884948974E+01	
1.4430000000E+03	6.8948710022E+01	
1.4440000000E+03	6.9012564247E+01	
1.4450000000E+03	6.9076508629E+01	
1.4460000000E+03	6.9140534938E+01	
1.4470000000E+03	6.9204654895E+01	
1.4480000000E+03	6.9268868667E+01	
1.4490000000E+03	6.9333165971E+01	
1.4500000000E+03	6.9397563577E+01	
1.4510000000E+03	6.9462045027E+01	
1.4520000000E+03	6.9526620934E+01	
1.4530000000E+03	6.9591280907E+01	
1.4540000000E+03	6.9656035644E+01	
1.4550000000E+03	6.9720891820E+01	
1.4560000000E+03	6.9785832488E+01	
1.4570000000E+03	6.9850857721E+01	
1.4580000000E+03	6.9915978335E+01	
1.4590000000E+03	6.9981196071E+01	
1.4600000000E+03	7.0046504119E+01	
1.4610000000E+03	7.0111908093E+01	
1.4620000000E+03	7.0177397283E+01	
1.4630000000E+03	7.0242980036E+01	
1.4640000000E+03	7.0308658147E+01	
1.4650000000E+03	7.0374432849E+01	
1.4660000000E+03	7.0440293277E+01	
1.4670000000E+03	7.0506261643E+01	
1.4680000000E+03	7.0572300987E+01	
1.4690000000E+03	7.0638449130E+01	
1.4700000000E+03	7.0704689106E+01	
1.4710000000E+03	7.0771021045E+01	
1.4720000000E+03	7.0837450695E+01	
1.4730000000E+03	7.0903974554E+01	
1.4740000000E+03	7.0970591329E+01	
1.4750000000E+03	7.1037306356E+01	
1.4760000000E+03	7.1104114095E+01	
1.4770000000E+03	7.1171014681E+01	
1.4780000000E+03	7.1238012148E+01	
1.4790000000E+03	7.1305107445E+01	
1.4800000000E+03	7.1372296058E+01	
1.4810000000E+03	7.1439583924E+01	
1.4820000000E+03	7.1506963972E+01	
1.4830000000E+03	7.1574442359E+01	
1.4840000000E+03	7.1642014684E+01	
1.4850000000E+03	7.1709686949E+01	
1.4860000000E+03	7.1777453437E+01	
1.4870000000E+03	7.1845317809E+01	
1.4880000000E+03	7.1913282641E+01	
1.4890000000E+03	7.1981342194E+01	
1.4900000000E+03	7.2049496577E+01	
1.4910000000E+03	7.2117751930E+01	
1.4920000000E+03	7.2186106807E+01	
1.4930000000E+03	7.2254556531E+01	
1.4940000000E+03	7.2323101725E+01	
1.4950000000E+03	7.2391748593E+01	
1.4960000000E+03	7.2460497323E+01	
1.4970000000E+03	7.2529342868E+01	
1.4980000000E+03	7.2598281806E+01	
1.4990000000E+03	7.2667329328E+01	
1.5000000000E+03	7.2736467069E+01	
1.5010000000E+03	7.2805707539E+01	
1.5020000000E+03	7.2875049988E+01	
1.5030000000E+03	7.2944495060E+01	
1.5040000000E+03	7.3014030906E+01	
1.5050000000E+03	7.3083676505E+01	
1.5060000000E+03	7.3153419455E+01	
1.5070000000E+03	7.3223258950E+01	
1.5080000000E+03	7.3293202296E+01	
1.5090000000E+03	7.3363249867E+01	
1.5100000000E+03	7.3433389032E+01	
1.5110000000E+03	7.3503639143E+01	
1.5120000000E+03	7.3573988490E+01	
1.5130000000E+03	7.3644434626E+01	
1.5140000000E+03	7.3714992388E+01	
1.5150000000E+03	7.3785642448E+01	
1.5160000000E+03	7.3856397964E+01	
1.5170000000E+03	7.3927257362E+01	
1.5180000000E+03	7.3998217449E+01	
1.5190000000E+03	7.4069283599E+01	
1.5200000000E+03	7.4140449366E+01	
1.5210000000E+03	7.4211721527E+01	
1.5220000000E+03	7.4283097738E+01	
1.5230000000E+03	7.4354576653E+01	
1.5240000000E+03	7.4426155856E+01	
1.5250000000E+03	7.4497842225E+01	
1.5260000000E+03	7.4569635949E+01	
1.5270000000E+03	7.4641529111E+01	
1.5280000000E+03	7.4713524964E+01	
1.5290000000E+03	7.4785628765E+01	
1.5300000000E+03	7.4857840699E+01	
1.5310000000E+03	7.4930154065E+01	
1.5320000000E+03	7.5002571015E+01	
1.5330000000E+03	7.5075095513E+01	
1.5340000000E+03	7.5147728933E+01	
1.5350000000E+03	7.5220464477E+01	
1.5360000000E+03	7.5293309287E+01	
1.5370000000E+03	7.5366256528E+01	
1.5380000000E+03	7.5439315350E+01	
1.5390000000E+03	7.5512476403E+01	
1.5400000000E+03	7.5585747534E+01	
1.5410000000E+03	7.5659121783E+01	
1.5420000000E+03	7.5732606448E+01	
1.5430000000E+03	7.5806197669E+01	
1.5440000000E+03	7.5879898486E+01	
1.5450000000E+03	7.5953710377E+01	
1.5460000000E+03	7.6027626273E+01	
1.5470000000E+03	7.6101646307E+01	
1.5480000000E+03	7.6175777196E+01	
1.5490000000E+03	7.6250023030E+01	
1.5500000000E+03	7.6324373582E+01	
1.5510000000E+03	7.6398828986E+01	
1.5520000000E+03	7.6473404215E+01	
1.5530000000E+03	7.6548082254E+01	
1.5540000000E+03	7.6622870961E+01	
1.5550000000E+03	7.6697765249E+01	
1.5560000000E+03	7.6772772779E+01	
1.5570000000E+03	7.6847893748E+01	
1.5580000000E+03	7.6923128364E+01	
1.5590000000E+03	7.6998463283E+01	
1.5600000000E+03	7.7073914083E+01	
1.5610000000E+03	7.7149479169E+01	
1.5620000000E+03	7.7225151065E+01	
1.5630000000E+03	7.7300937617E+01	
1.5640000000E+03	7.7376836539E+01	
1.5650000000E+03	7.7452849361E+01	
1.5660000000E+03	7.7528969749E+01	
1.5670000000E+03	7.7605205641E+01	
1.5680000000E+03	7.7681557258E+01	
1.5690000000E+03	7.7758016927E+01	
1.5700000000E+03	7.7834585180E+01	
1.5710000000E+03	7.7911274101E+01	
1.5720000000E+03	7.7988079606E+01	
1.5730000000E+03	7.8064993935E+01	
1.5740000000E+03	7.8142017218E+01	
1.5750000000E+03	7.8219159290E+01	
1.5760000000E+03	7.8296422445E+01	
1.5770000000E+03	7.8373795189E+01	
1.5780000000E+03	7.8451277652E+01	
1.5790000000E+03	7.8528878131E+01	
1.5800000000E+03	7.8606594252E+01	
1.5810000000E+03	7.8684429215E+01	
1.5820000000E+03	7.8762374677E+01	
1.5830000000E+03	7.8840439037E+01	
1.5840000000E+03	7.8918622541E+01	
1.5850000000E+03	7.8996917053E+01	
1.5860000000E+03	7.9075333447E+01	
1.5870000000E+03	7.9153865616E+01	
1.5880000000E+03	7.9232509400E+01	
1.5890000000E+03	7.9311273415E+01	
1.5900000000E+03	7.9390157829E+01	
1.5910000000E+03	7.9469154405E+01	
1.5920000000E+03	7.9548274713E+01	
1.5930000000E+03	7.9627512173E+01	
1.5940000000E+03	7.9706870999E+01	
1.5950000000E+03	7.9786342749E+01	
1.5960000000E+03	7.9865936259E+01	
1.5970000000E+03	7.9945642367E+01	
1.5980000000E+03	8.0025470869E+01	
1.5990000000E+03	8.0105421857E+01	
1.6000000000E+03	8.0185495518E+01	
1.6010000000E+03	8.0265683290E+01	
1.6020000000E+03	8.0345994118E+01	
1.6030000000E+03	8.0426418016E+01	
1.6040000000E+03	8.0506975960E+01	
1.6050000000E+03	8.0587648853E+01	
1.6060000000E+03	8.0668436807E+01	
1.6070000000E+03	8.0749348981E+01	
1.6080000000E+03	8.0830386841E+01	
1.6090000000E+03	8.0911549046E+01	
1.6100000000E+03	8.0992827141E+01	
1.6110000000E+03	8.1074230433E+01	
1.6120000000E+03	8.1155749977E+01	
1.6130000000E+03	8.1237395123E+01	
1.6140000000E+03	8.1319165454E+01	
1.6150000000E+03	8.1401064135E+01	
1.6160000000E+03	8.1483079923E+01	
1.6170000000E+03	8.1565222312E+01	
1.6180000000E+03	8.1647482159E+01	
1.6190000000E+03	8.1729869000E+01	
1.6200000000E+03	8.1812384968E+01	
1.6210000000E+03	8.1895019498E+01	
1.6220000000E+03	8.1977781789E+01	
1.6230000000E+03	8.2060672084E+01	
1.6240000000E+03	8.2143690626E+01	
1.6250000000E+03	8.2226828063E+01	
1.6260000000E+03	8.2310084078E+01	
1.6270000000E+03	8.2393482325E+01	
1.6280000000E+03	8.2477000114E+01	
1.6290000000E+03	8.2560637659E+01	
1.6300000000E+03	8.2644404811E+01	
1.6310000000E+03	8.2728301831E+01	
1.6320000000E+03	8.2812330835E+01	
1.6330000000E+03	8.2896482601E+01	
1.6340000000E+03	8.2980765049E+01	
1.6350000000E+03	8.3065168474E+01	
1.6360000000E+03	8.3149703001E+01	
1.6370000000E+03	8.3234373130E+01	
1.6380000000E+03	8.3319165445E+01	
1.6390000000E+03	8.3404089713E+01	
1.6400000000E+03	8.3489136014E+01	
1.6410000000E+03	8.3574314675E+01	
1.6420000000E+03	8.3659625947E+01	
1.6430000000E+03	8.3745065473E+01	
1.6440000000E+03	8.3830638235E+01	
1.6450000000E+03	8.3916344451E+01	
1.6460000000E+03	8.4002174025E+01	
1.6470000000E+03	8.4088137464E+01	
1.6480000000E+03	8.4174235037E+01	
1.6490000000E+03	8.4260458340E+01	
1.6500000000E+03	8.4346810721E+01	
